7.68;1;Position (-0.1643687, -0.2405852, -0.1338992), Orientation(0.849332, 0.3772406, -0.3306605, -0.1642811);0,0,0;0,0,0;40.87968,295.835,329.5387;30.81368,1.695971,347.6611;352.1391,7.742338,334.2336;9.042373,353.0317,354.8517;4.167877,3.462638,339.4143;357.1195,0.7935511,316.0136;358.5498,2.903492,338.9294;359.3421,6.019904,341.0644;358.6474,0.518277,327.2648;353.8067,0.1932155,347.6487;354.4284,9.725793,347.0888;355.1985,0.7826026,310.9777;357.2894,357.2219,330.1359;336.6904,17.70523,354.1525;10.17009,358.3311,351.2956;353.4611,5.968943,305.2603;358.5446,354.8627,324.061;0;0;0;0;1; 1; 1; 1; 1; 1;Position (0.2149503, -0.3736251, -0.2499078), Orientation(0.06771362, -0.726052, -0.1314275, 0.6715581);0,0,0;0,0,0;41.32936,295.4725,327.9128;31.55512,12.38852,353.2096;352.4425,7.577634,329.2122;9.241611,353.0177,357.2344;4.175583,1.885421,336.2416;357.085,0.8165413,336.6418;358.1246,2.98448,359.5119;359.4301,6.887428,331.399;358.6718,0.5062527,340.3859;355.1569,0.06574241,1.614276;354.7307,13.56519,339.0121;355.5254,0.512534,330.0894;358.4097,356.7708,346.0234;336.6904,17.70523,354.1525;10.17745,2.210902,350.9242;354.4413,5.133232,334.1481;359.8301,354.3758,354.456;0;0;0;0;1; 1; 1; 1; 1; 
7.69;1;Position (-0.1642295, -0.2397027, -0.1331711), Orientation(0.8487904, 0.3782846, -0.3303002, -0.1654012);0,0,0;0,0,0;40.90358,295.8164,329.4534;30.78936,1.479367,347.5502;352.1418,7.741051,334.1908;9.075525,353.0288,355.2485;4.155398,3.334437,339.6013;357.1174,0.7955083,317.4264;358.5335,2.909644,339.7538;359.3412,5.985785,340.9491;358.6476,0.5181292,327.3963;353.8196,0.1903769,347.7852;354.4328,9.754172,346.7642;355.1999,0.7810013,311.0727;357.3222,357.2033,330.6301;336.6904,17.70523,354.1525;10.1749,358.5018,351.3528;353.4594,5.971417,305.1932;358.5484,354.86,324.1611;0;0;0;0;1; 1; 0; 1; 1; 1;Position (0.215041, -0.3729877, -0.2495212), Orientation(0.07021564, -0.7255249, -0.1314531, 0.6718656);0,0,0;0,0,0;41.44083,295.3786,327.503;31.55053,12.22526,353.1241;352.4438,7.576903,329.1916;9.240322,353.0178,357.219;4.186181,1.911069,335.9278;357.0858,0.8162093,336.2307;358.1289,2.984436,359.3086;359.4328,6.937887,331.3181;358.6709,0.5065907,339.9079;355.1403,0.06529684,1.44353;354.7325,13.57779,338.8895;355.5157,0.5181975,329.5847;358.3917,356.7753,345.7807;336.6904,17.70523,354.1525;10.16642,2.233625,350.6911;354.4259,5.140755,333.7692;359.8247,354.3763,354.3377;0;0;0;0;1; 1; 1; 1; 1; 
7.7;1;Position (-0.1640165, -0.2380597, -0.131448), Orientation(0.8473414, 0.3805403, -0.3301609, -0.1679153);0,0,0;0,0,0;40.95823,295.7735,329.2577;30.74408,1.084795,347.3484;352.1578,7.733179,333.931;9.136757,353.024,355.9811;4.130026,3.065186,339.9636;357.1143,0.7982485,319.4705;358.5069,2.919113,341.0897;359.3422,5.985632,340.7484;358.6482,0.5177887,327.7012;353.8493,0.1840037,348.0971;354.4373,9.731402,346.0836;355.2018,0.7787375,311.2073;357.3875,357.1672,331.6088;336.6904,17.70523,354.1525;10.18666,358.8927,351.5064;353.4532,5.98033,304.9523;358.5615,354.8505,324.5156;0;0;0;0;1; 1; 0; 1; 1; 1;Position (0.2151642, -0.3715786, -0.2485758), Orientation(0.07574481, -0.7245903, -0.1311841, 0.6723261);0,0,0;0,0,0;41.65758,295.1913,326.6979;31.53979,11.86875,352.9376;352.4461,7.575483,329.1516;9.238087,353.0179,357.1923;4.208004,1.972762,335.2961;357.0873,0.815516,335.3935;358.1378,2.984296,358.8874;359.4386,7.031992,330.9982;358.6689,0.5073358,338.8908;355.1089,0.06459256,1.121865;354.7347,13.57604,338.6086;355.4958,0.5301983,328.5396;358.3549,356.7848,345.2817;336.6904,17.70523,354.1525;10.15395,2.306306,350.4273;354.398,5.15479,333.0755;359.8155,354.3773,354.1339;0;0;0;0;1; 1; 1; 1; 1; 
7.71;1;Position (-0.1639654, -0.2376385, -0.1309789), Orientation(0.8469356, 0.3811413, -0.330164, -0.1685916);0,0,0;0,0,0;40.97345,295.7615,329.2032;30.73194,0.9807686,347.2952;352.1628,7.730675,333.8489;9.153066,353.0229,356.1761;4.123129,2.991565,340.0607;357.1135,0.798918,319.9828;358.4998,2.921497,341.4407;359.3427,5.990303,340.6961;358.6483,0.5176936,327.7867;353.8576,0.1822431,348.1847;354.4383,9.719756,345.8977;355.2023,0.778182,311.2404;357.4053,357.1576,331.8747;336.6904,17.70523,354.1525;10.18992,359.0018,351.5506;353.4513,5.983018,304.8798;358.5655,354.8477,324.6219;0;0;0;0;1; 1; 0; 1; 1; 1;Position (0.2151923, -0.3712007, -0.2483166), Orientation(0.07722719, -0.7243512, -0.1310911, 0.6724332);0,0,0;0,0,0;41.7155,295.1401,326.4809;31.53664,11.77043,352.8862;352.4467,7.575103,329.1409;9.237504,353.0179,357.1853;4.21393,1.990097,335.1253;357.0877,0.8153241,335.1663;358.1402,2.984246,358.7727;359.4402,7.056979,330.9008;358.6684,0.5075464,338.6117;355.1006,0.06443474,1.03622;354.7352,13.57371,338.5303;355.4904,0.5335369,328.2544;358.3449,356.7875,345.146;336.6904,17.70523,354.1525;10.15125,2.327803,350.3703;354.3907,5.158556,332.8921;359.8131,354.3775,354.0812;0;0;0;0;1; 1; 1; 1; 1; 
7.72;1;Position (-0.1639201, -0.2372407, -0.1305115), Orientation(0.8465229, 0.3817295, -0.3302016, -0.1692587);0,0,0;0,0,0;40.99115,295.7475,329.1396;30.71841,0.8657794,347.2365;352.1695,7.727386,333.7414;9.171509,353.0217,356.3966;4.115308,2.907277,340.169;357.1127,0.7996327,320.536;358.492,2.924115,341.8336;359.3435,6.001282,340.6393;358.6485,0.5175816,327.8877;353.8676,0.1801432,348.29;354.439,9.699981,345.6823;355.2029,0.7776104,311.2744;357.4261,357.1466,332.1831;336.6904,17.70523,354.1525;10.19376,359.1296,351.604;353.449,5.98639,304.7889;358.5705,354.8441,324.7565;0;0;0;0;1; 1; 0; 1; 1; 1;Position (0.2152158, -0.370829, -0.2480569), Orientation(0.07868499, -0.7241276, -0.1309824, 0.6725263);0,0,0;0,0,0;41.78074,295.0819,326.2355;31.53293,11.65698,352.8268;352.4474,7.574678,329.1289;9.236874,353.018,357.1778;4.220679,2.010443,334.9315;357.0882,0.8151029,334.9072;358.143,2.984184,358.6422;359.442,7.084542,330.7769;358.6678,0.5077929,338.2894;355.0913,0.06427415,0.9409804;354.7357,13.56882,338.439;355.4841,0.5374133,327.9261;358.3335,356.7905,344.9915;336.6904,17.70523,354.1525;10.14901,2.354267,350.3231;354.3825,5.162775,332.688;359.8105,354.3778,354.0248;0;0;0;0;1; 1; 1; 1; 1; 
7.73;1;Position (-0.1638811, -0.2368859, -0.130084), Orientation(0.8461426, 0.3822616, -0.3302497, -0.1698645);0,0,0;0,0,0;41.00845,295.7338,329.0775;30.70545,0.7564434,347.1806;352.1762,7.724037,333.6323;9.189058,353.0206,356.6064;4.107749,2.82562,340.2731;357.1118,0.8003274,321.0802;358.4843,2.926591,342.2128;359.3444,6.014304,340.5854;358.6487,0.5174726,327.9863;353.8773,0.1781301,348.3919;354.4395,9.678035,345.4689;355.2033,0.7770883,311.3055;357.446,357.1361,332.4784;336.6904,17.70523,354.1525;10.1975,359.2544,351.6567;353.4467,5.98979,304.6973;358.5755,354.8406,324.89;0;0;0;0;1; 1; 0; 1; 1; 1;Position (0.2152355, -0.3704912, -0.2478188), Orientation(0.0800071, -0.7239286, -0.1308766, 0.6726051);0,0,0;0,0,0;41.84311,295.0257,325.9999;31.52923,11.54659,352.7691;352.4481,7.574269,329.1174;9.236277,353.018,357.1707;4.22719,2.030431,334.7449;357.0887,0.8148881,334.6577;358.1457,2.984118,358.5159;359.4438,7.110921,330.6524;358.6671,0.5080348,337.9776;355.0824,0.06413468,0.8497891;354.7361,13.56314,338.3497;355.4782,0.5411842,327.6095;358.3225,356.7935,344.8422;336.6904,17.70523,354.1525;10.14721,2.380774,350.2849;354.3748,5.166811,332.4942;359.8081,354.3781,353.9716;0;0;0;0;1; 1; 1; 1; 1; 
7.74;1;Position (-0.1638484, -0.2365887, -0.129726), Orientation(0.8458253, 0.3827045, -0.3302896, -0.1703689);0,0,0;0,0,0;41.02544,295.7203,329.0164;30.69292,0.6513614,347.127;352.183,7.720637,333.522;9.20595,353.0196,356.8083;4.100389,2.745966,340.3739;357.111,0.8010015,321.614;358.477,2.928941,342.5803;359.3453,6.028876,340.5338;358.6488,0.5173658,328.0832;353.8868,0.1761815,348.4914;354.4399,9.654391,345.2573;355.2037,0.7766024,311.3345;357.4654,357.1261,332.7641;336.6904,17.70523,354.1525;10.20114,359.3769,351.709;353.4443,5.993212,304.6053;358.5805,354.8371,325.0229;0;0;0;0;1; 1; 0; 1; 1; 1;Position (0.2152519, -0.3702082, -0.2476193), Orientation(0.08110806, -0.723762, -0.1307882, 0.6726698);0,0,0;0,0,0;41.90327,294.971,325.7718;31.5255,11.43857,352.7126;352.4488,7.573874,329.1063;9.235706,353.018,357.1638;4.233518,2.050143,334.564;357.0891,0.8146776,334.4155;358.1483,2.984048,358.393;359.4456,7.136396,330.5273;358.6666,0.5082733,337.674;355.0737,0.06401214,0.7606104;354.7364,13.55685,338.262;355.4724,0.5448775,327.3021;358.3118,356.7964,344.697;336.6904,17.70523,354.1525;10.14571,2.407311,350.2535;354.3673,5.170712,332.308;359.8058,354.3783,353.9209;0;0;0;0;1; 1; 1; 1; 1; 
7.75;1;Position (-0.1640788, -0.2372408, -0.130637), Orientation(0.8465829, 0.3817483, -0.3302245, -0.1688713);0,0,0;0,0,0;41.03928,295.7093,328.9665;30.70067,0.7161692,347.16;352.1741,7.725067,333.6658;9.202865,353.0198,356.7714;4.097643,2.697102,340.3766;357.1107,0.8012202,321.7888;358.4733,2.930094,342.7633;359.3423,5.961228,340.517;358.6488,0.5173743,328.0755;353.9113,0.1712258,348.7482;354.4437,9.748482,345.4589;355.2041,0.7762091,311.3579;357.4501,357.134,332.5382;336.6904,17.70523,354.1525;10.18843,359.1771,351.4817;353.4473,5.988893,304.7215;358.5718,354.8432,324.7919;0;0;0;0;1; 1; 1; 1; 1; 1;Position (0.2154301, -0.3703548, -0.2478761), Orientation(0.08031841, -0.7238414, -0.1292798, 0.6729707);0,0,0;0,0,0;41.93166,294.945,325.6638;31.52764,11.50045,352.745;352.4536,7.570962,329.0245;9.234569,353.0181,357.1502;4.226029,2.04209,334.8073;357.0887,0.8148677,334.6342;358.1464,2.984097,358.4792;359.4423,7.089668,330.7805;358.667,0.5080907,337.9059;355.0799,0.06409772,0.8238577;354.7338,13.53417,338.3943;355.4774,0.5417105,327.5656;358.3178,356.7947,344.779;336.6904,17.70523,354.1525;10.15774,2.343086,350.5075;354.3795,5.164348,332.6123;359.8098,354.3779,354.0093;0;0;0;0;1; 1; 1; 1; 1; 
7.76;1;Position (-0.1645183, -0.2383491, -0.1320796), Orientation(0.8476952, 0.3802725, -0.3303036, -0.1664485);0,0,0;0,0,0;41.08749,295.6707,328.7927;30.70186,0.7262244,347.1652;352.1669,7.728678,333.7835;9.219072,353.0189,356.9651;4.083778,2.505736,340.49;357.1093,0.8023553,322.7059;358.4579,2.934735,343.5199;359.3379,5.852301,340.43;358.649,0.5172513,328.1875;353.9723,0.1593763,349.3871;354.451,9.899705,345.6222;355.2052,0.7749351,311.434;357.4484,357.1349,332.5141;336.6904,17.70523,354.1525;10.16764,358.9325,351.097;353.4501,5.984733,304.8335;358.5629,354.8495,324.5523;0;0;0;0;1; 1; 1; 1; 1; 1;Position (0.2157592, -0.3704305, -0.2481962), Orientation(0.07967659, -0.7239224, -0.1262863, 0.6735279);0,0,0;0,0,0;42.05976,294.8262,325.1739;31.52755,11.49757,352.7435;352.4641,7.564589,328.8461;9.23169,353.0182,357.1158;4.218695,2.048638,335.0725;357.0885,0.8149825,334.7669;358.1458,2.984115,358.5104;359.4376,7.020702,331.102;358.6671,0.5080365,337.9752;355.0831,0.06414575,0.8573511;354.7288,13.47608,338.5553;355.4796,0.5403152,327.6822;358.3173,356.7949,344.7716;336.6904,17.70523,354.1525;10.18163,2.247086,351.0122;354.3942,5.156724,332.9812;359.8157,354.3773,354.1394;0;0;0;0;1; 1; 1; 1; 1; 
7.77;1;Position (-0.1647304, -0.238832, -0.132663), Orientation(0.8481072, 0.3796922, -0.330419, -0.1654431);0,0,0;0,0,0;41.11808,295.646,328.6821;30.69824,0.6958947,347.1497;352.1663,7.728975,333.7932;9.23356,353.0181,357.1382;4.074263,2.381397,340.5798;357.1082,0.8031325,323.3453;358.4478,2.9377,344.0212;359.3362,5.805976,340.3703;358.6492,0.5171487,328.281;354.0064,0.1530654,349.7434;354.4547,9.963874,345.6318;355.2059,0.7741562,311.4805;357.4556,357.1312,332.6194;336.6904,17.70523,354.1525;10.15864,358.8556,350.9249;353.4507,5.983997,304.8534;358.5607,354.8511,324.4944;0;0;0;0;1; 1; 1; 1; 1; 1;Position (0.215914, -0.3703892, -0.2482859), Orientation(0.07969342, -0.7239345, -0.1247976, 0.6737904);0,0,0;0,0,0;42.14494,294.7458,324.8459;31.52618,11.458,352.7228;352.4696,7.561202,328.7518;9.23007,353.0183,357.0965;4.217269,2.058925,335.1412;357.0885,0.8149641,334.7458;358.1463,2.9841,358.4837;359.4358,6.993633,331.2091;358.667,0.5080977,337.8969;355.082,0.06412843,0.8454668;354.7263,13.44309,338.6049;355.4785,0.5410051,327.6245;358.3133,356.796,344.7171;336.6904,17.70523,354.1525;10.19391,2.208902,351.2715;354.3989,5.154335,333.0977;359.818,354.377,354.1903;0;0;0;0;1; 1; 1; 1; 1; 
7.78;1;Position (-0.1648805, -0.2391598, -0.1330452), Orientation(0.8483649, 0.379317, -0.3305217, -0.1647756);0,0,0;0,0,0;41.14153,295.6271,328.5972;30.69471,0.6663011,347.1346;352.1665,7.728858,333.7894;9.245332,353.0175,357.2788;4.066839,2.285684,340.6518;357.1074,0.8037326,323.8458;358.4399,2.939931,344.4091;359.335,5.774605,340.3235;358.6493,0.5170662,328.3565;354.0316,0.1485362,350.0068;354.4572,10.00728,345.6223;355.2064,0.7735667,311.5157;357.4623,357.1277,332.7197;336.6904,17.70523,354.1525;10.15243,358.8104,350.8044;353.4508,5.983773,304.8595;358.5597,354.8518,324.4657;0;0;0;0;1; 1; 1; 1; 1; 1;Position (0.2160223, -0.3703387, -0.2483317), Orientation(0.07979398, -0.7239354, -0.1237312, 0.6739742);0,0,0;0,0,0;42.21061,294.6831,324.5916;31.52489,11.42103,352.7035;352.4737,7.558726,328.6829;9.228864,353.0184,357.0821;4.216736,2.067914,335.1766;357.0886,0.8149346,334.7115;358.1469,2.984084,358.4551;359.4347,6.975895,331.2744;358.6668,0.5081611,337.8162;355.0805,0.06410689,0.8303779;354.7244,13.4185,338.6335;355.4772,0.5418009,327.558;358.3096,356.797,344.6667;336.6904,17.70523,354.1525;10.20283,2.183679,351.4597;354.4017,5.152919,333.167;359.8195,354.3769,354.2237;0;0;0;0;1; 1; 1; 1; 1; 
7.79;1;Position (-0.164939, -0.2392854, -0.1331896), Orientation(0.8484604, 0.3791759, -0.3305647, -0.1645218);0,0,0;0,0,0;41.15093,295.6194,328.5631;30.69319,0.6536438,347.1281;352.1667,7.728768,333.7865;9.250145,353.0173,357.3363;4.063842,2.247202,340.6811;357.1071,0.8039756,324.0499;358.4367,2.94082,344.5663;359.3345,5.762562,340.3047;358.6494,0.5170326,328.3872;354.0417,0.1467667,350.1116;354.4583,10.02393,345.6164;355.2066,0.7733316,311.5298;357.4652,357.1262,332.7624;336.6904,17.70523,354.1525;10.15002,358.794,350.7574;353.4508,5.983723,304.8607;358.5593,354.8521,324.4562;0;0;0;0;1; 1; 1; 1; 1; 1;Position (0.2160058, -0.3704026, -0.2482182), Orientation(0.07991885, -0.7239254, -0.1239222, 0.6739351);0,0,0;0,0,0;42.19168,294.7012,324.665;31.52163,11.32886,352.6553;352.47,7.560958,328.745;9.228444,353.0184,357.0771;4.212139,2.05219,335.3048;357.0885,0.8149815,334.766;358.1466,2.984092,358.4709;359.4334,6.958572,331.3785;358.6669,0.5081394,337.8438;355.0814,0.06411993,0.8395807;354.7215,13.37127,338.621;355.4774,0.5416653,327.5693;358.3094,356.797,344.6652;336.6904,17.70523,354.1525;10.20739,2.241852,351.5553;354.4038,5.151823,333.2207;359.8208,354.3767,354.2506;0;0;0;0;1; 1; 1; 1; 1; 
7.8;1;Position (-0.1654049, -0.2398382, -0.1337512), Orientation(0.8487356, 0.3778583, -0.3322693, -0.1626904);0,0,0;0,0,0;41.177,295.5982,328.4685;30.59029,359.8175,346.702;352.1643,7.729946,333.825;9.25892,353.0169,357.4412;4.049164,1.993447,340.7036;357.1071,0.8039601,324.0368;358.4299,2.94268,344.9002;359.3314,5.704712,340.4088;358.6489,0.517294,328.1486;353.9812,0.1577119,349.4799;354.4427,9.830198,346.1215;355.2172,0.7614965,312.2416;357.4946,357.1112,333.1943;336.6904,17.70523,354.1525;10.17914,358.7158,351.3893;353.4705,5.955704,305.6198;358.5718,354.8433,324.7903;0;0;0;0;1; 1; 1; 1; 1; 1;Position (0.2159616, -0.3705733, -0.2478284), Orientation(0.08046342, -0.723883, -0.1244005, 0.6738277);0,0,0;0,0,0;42.15516,294.7361,324.8064;31.51033,11.02304,352.4954;352.4594,7.567446,328.926;9.226873,353.0185,357.0583;4.198269,2.006926,335.6952;357.0882,0.8150973,334.9007;358.1459,2.984111,358.5024;359.4294,6.903431,331.7044;358.667,0.5081105,337.8806;355.0832,0.06414609,0.8575707;354.7121,13.2175,338.5785;355.4772,0.5417861,327.5592;358.3074,356.7976,344.6371;336.6904,17.70523,354.1525;10.22326,2.424392,351.89;354.4103,5.148579,333.3804;359.8247,354.3763,354.3369;0;0;0;0;1; 1; 1; 1; 1; 
7.81;1;Position (-0.1657258, -0.2402168, -0.1341269), Orientation(0.8489072, 0.3769803, -0.3334268, -0.1614589);0,0,0;0,0,0;41.19695,295.5819,328.396;30.51981,359.2695,346.4234;352.1632,7.730503,333.8432;9.266626,353.0166,357.5332;4.038575,1.816406,340.7295;357.107,0.8040444,324.1079;358.4243,2.944159,345.171;359.3293,5.665277,340.4705;358.6487,0.5174476,328.009;353.9475,0.1641074,349.1276;354.4328,9.705304,346.4423;355.2241,0.7539028,312.7025;357.5149,357.101,333.4928;336.6904,17.70523,354.1525;10.19795,358.6664,351.7968;353.4836,5.937536,306.1158;358.5799,354.8375,325.0078;0;0;0;0;1; 1; 1; 1; 1; 1;Position (0.2159363, -0.3706711, -0.2475549), Orientation(0.08089691, -0.7238495, -0.1246569, 0.6737643);0,0,0;0,0,0;42.14022,294.7503,324.8641;31.50218,10.81382,352.3861;352.4526,7.571534,329.0405;9.225719,353.0185,357.0445;4.18921,1.978541,335.9519;357.0881,0.8151613,334.9754;358.1457,2.984118,358.5156;359.4266,6.866521,331.9211;358.667,0.5081079,337.8839;355.0838,0.06415647,0.8646489;354.7057,13.11333,338.5488;355.4767,0.5421013,327.5329;358.3052,356.7982,344.608;336.6904,17.70523,354.1525;10.23441,2.544846,352.1264;354.4144,5.146495,333.4835;359.8274,354.3761,354.3949;0;0;0;0;1; 1; 1; 1; 1; 
7.82;1;Position (-0.1658496, -0.2403627, -0.1342703), Orientation(0.8489707, 0.3766455, -0.3338712, -0.1609878);0,0,0;0,0,0;41.20497,295.5754,328.3669;30.49218,359.0596,346.3168;352.1628,7.730682,333.8491;9.269842,353.0164,357.5716;4.034392,1.747332,340.7409;357.1069,0.8040901,324.1466;358.4221,2.944758,345.282;359.3285,5.650077,340.4929;358.6486,0.5175031,327.9587;353.9357,0.1664096,349.0034;354.429,9.658099,346.5632;355.2267,0.7510237,312.8782;357.5228,357.097,333.609;336.6904,17.70523,354.1525;10.20511,358.6479,351.9518;353.4886,5.930608,306.3058;358.583,354.8354,325.0906;0;0;0;0;1; 1; 1; 1; 1; 1;Position (0.2159273, -0.3707059, -0.2474485), Orientation(0.08107295, -0.7238359, -0.1247451, 0.6737414);0,0,0;0,0,0;42.13586,294.7544,324.8809;31.49894,10.73278,352.3437;352.4501,7.573063,329.0835;9.225261,353.0186,357.039;4.185757,1.967949,336.05;357.088,0.8151837,335.0016;358.1456,2.984119,358.5195;359.4256,6.852394,332.0043;358.667,0.5081093,337.8821;355.084,0.06415936,0.866628;354.7032,13.0732,338.5373;355.4765,0.5422557,327.5201;358.3043,356.7984,344.5954;336.6904,17.70523,354.1525;10.23879,2.590803,352.2191;354.416,5.145714,333.5222;359.8284,354.376,354.4171;0;0;0;0;1; 1; 1; 1; 1; 
7.83;1;Position (-0.1662379, -0.2406639, -0.1340844), Orientation(0.8481419, 0.3775889, -0.3352146, -0.1603535);0,0,0;0,0,0;41.27682,295.5162,328.105;30.34161,357.9594,345.7598;352.1533,7.735409,334.0044;9.276406,353.0161,357.65;4.020251,1.447724,340.6558;357.1077,0.8035488,323.6918;358.4209,2.945073,345.3408;359.3229,5.52303,340.4742;358.6481,0.5178111,327.6811;353.8933,0.174861,348.5592;354.4193,9.498699,346.6365;355.2346,0.7426836,313.3899;357.561,357.0783,334.1674;336.6904,17.70523,354.1525;10.22309,358.6022,352.3409;353.5075,5.90508,307.0098;358.5939,354.8278,325.3799;0;0;0;0;1; 1; 1; 1; 1; 1;Position (0.2157012, -0.3708869, -0.2468946), Orientation(0.08016398, -0.7238945, -0.1303316, 0.672729);0,0,0;0,0,0;41.93657,294.9405,325.6451;31.47693,10.21387,352.0727;352.4146,7.594268,329.6847;9.241982,353.0177,357.2388;4.1527,1.66011,336.5957;357.088,0.8151857,335.004;358.1465,2.984094,358.4736;359.4195,6.750605,332.309;358.6665,0.5083034,337.6359;355.0728,0.06399933,0.7506872;354.7047,13.10315,338.591;355.474,0.5438554,327.387;358.2988,356.8,344.52;336.6904,17.70523,354.1525;10.22848,2.75182,352.0062;354.4147,5.146363,333.49;359.83,354.3759,354.4521;0;0;0;0;1; 1; 1; 1; 1; 
7.84;1;Position (-0.1666136, -0.2409585, -0.1339135), Orientation(0.8473628, 0.378455, -0.3364983, -0.1597407);0,0,0;0,0,0;41.34613,295.4585,327.8513;30.19589,356.9564,345.2542;352.145,7.739485,334.1389;9.284715,353.0158,357.7492;4.006009,1.158873,340.5909;357.1082,0.8031693,323.3757;358.4183,2.945734,345.4646;359.3177,5.403819,340.451;358.6477,0.5180811,327.4393;353.8582,0.1821311,348.1903;354.4104,9.352935,346.6978;355.2418,0.7350541,313.8618;357.5974,357.0609,334.6965;336.6904,17.70523,354.1525;10.23928,358.5609,352.6909;353.5249,5.882022,307.6513;358.604,354.8209,325.6483;0;0;0;0;1; 1; 1; 1; 1; 1;Position (0.215496, -0.3710341, -0.2463602), Orientation(0.07941819, -0.7239211, -0.135419, 0.6717831);0,0,0;0,0,0;41.76625,295.0949,326.2901;31.45435,9.726534,351.8183;352.3817,7.61347,330.2386;9.25705,353.017,357.4188;4.121985,1.375122,337.0999;357.0881,0.8151782,334.9953;358.1476,2.984066,358.4242;359.4138,6.655367,332.5941;358.666,0.5084982,337.3913;355.0618,0.06386622,0.6384466;354.7057,13.1243,338.6377;355.4713,0.5455607,327.2455;358.2928,356.8016,344.4393;336.6904,17.70523,354.1525;10.22043,2.902447,351.8418;354.4135,5.146928,333.462;359.8315,354.3757,354.4868;0;0;0;0;1; 1; 1; 1; 1; 
7.85;1;Position (-0.1668779, -0.2411673, -0.1337972), Orientation(0.8468242, 0.3790438, -0.3373945, -0.1593098);0,0,0;0,0,0;41.39495,295.4175,327.672;30.09185,356.2722,344.9106;352.1395,7.742157,334.2275;9.291341,353.0156,357.8284;3.995706,0.9551995,340.5522;357.1085,0.802956,323.1993;358.416,2.946332,345.5778;359.3141,5.321206,340.4326;358.6474,0.5182632,327.2771;353.8356,0.1869136,347.9537;354.4044,9.253531,346.7373;355.2468,0.7298398,314.1865;357.623,357.0489,335.0664;336.6904,17.70523,354.1525;10.25022,358.5328,352.9275;353.537,5.866413,308.0888;358.611,354.8161,325.8336;0;0;0;0;1; 1; 1; 1; 1; 1;Position (0.2153577, -0.3711253, -0.2459848), Orientation(0.07895254, -0.7239254, -0.1388581, 0.6711313);0,0,0;0,0,0;41.65081,295.1972,326.7233;31.43756,9.388181,351.6418;352.359,7.62644,330.618;9.267348,353.0165,357.5418;4.100801,1.179297,337.4463;357.0881,0.8151691,334.9847;358.1484,2.984044,358.3872;359.4099,6.589496,332.7916;358.6657,0.5086391,337.216;355.0541,0.06378524,0.5592372;354.7061,13.1361,338.6684;355.4694,0.5468301,327.1407;358.2884,356.8029,344.3794;336.6904,17.70523,354.1525;10.21548,3.006671,351.7421;354.4128,5.147301,333.4435;359.8327,354.3756,354.5117;0;0;0;0;1; 1; 1; 1; 1; 
7.86;1;Position (-0.1669811, -0.2412489, -0.1337523), Orientation(0.8466153, 0.3792705, -0.3377431, -0.1591417);0,0,0;0,0,0;41.41409,295.4013,327.6016;30.05022,356.0052,344.7769;352.1374,7.743169,334.2612;9.294041,353.0154,357.8606;3.991617,0.875221,340.5379;357.1086,0.8028803,323.1369;358.415,2.946584,345.6256;359.3127,5.28906,340.4252;358.6473,0.5183337,327.2145;353.8272,0.1887272,347.8651;354.4021,9.215062,346.7522;355.2488,0.7278145,314.3131;357.633,357.0442,335.2116;336.6904,17.70523,354.1525;10.25446,358.522,353.019;353.5417,5.860359,308.2592;358.6137,354.8142,325.9057;0;0;0;0;1; 1; 1; 1; 1; 1;Position (0.2153046, -0.371159, -0.2458383), Orientation(0.07877942, -0.7239241, -0.1401792, 0.6708781);0,0,0;0,0,0;41.60549,295.2369,326.8924;31.43077,9.255811,351.5728;352.3502,7.631459,330.7661;9.271348,353.0164,357.5896;4.092529,1.103091,337.5815;357.0881,0.815165,334.98;358.1487,2.984036,358.3725;359.4083,6.563896,332.8687;358.6656,0.5086951,337.1467;355.0511,0.0637565,0.5282111;354.7063,13.14027,338.6801;355.4686,0.5473369,327.0989;358.2867,356.8033,344.3554;336.6904,17.70523,354.1525;10.21365,3.047223,351.7055;354.4125,5.147443,333.4365;359.8331,354.3755,354.5215;0;0;0;0;1; 1; 1; 1; 1; 
7.87;1;Position (-0.1674519, -0.2411458, -0.1339462), Orientation(0.8458033, 0.381409, -0.3376791, -0.1584828);0,0,0;0,0,0;41.5867,295.2532,326.9624;29.99999,355.6878,344.618;352.1131,7.754889,334.6535;9.320332,353.0145,358.1746;3.986331,0.6513361,340.2918;357.1094,0.8022676,322.6344;358.4073,2.948539,346.0029;359.3057,5.105896,340.2081;358.6472,0.5184044,327.1519;353.8623,0.1812525,348.2343;354.3985,9.105949,346.4458;355.2433,0.7334269,313.963;357.6337,357.0439,335.2211;336.6904,17.70523,354.1525;10.22644,358.0478,352.5572;353.5415,5.860621,308.2517;358.614,354.8141,325.9123;0;0;0;0;1; 1; 1; 1; 1; 1;Position (0.2149487, -0.3712488, -0.2451174), Orientation(0.07969598, -0.7213318, -0.1529243, 0.6707782);0,0,0;0,0,0;41.46065,295.3618,327.4298;31.3771,8.292412,351.0707;352.2998,7.659428,331.6039;9.283865,353.0158,357.7391;4.049659,0.462861,337.8069;357.0887,0.8148711,334.6382;358.1531,2.983901,358.1614;359.3904,6.211402,333.2741;358.6645,0.509165,336.5723;355.0286,0.06359404,0.2978862;354.6907,12.89443,338.6881;355.4604,0.5526856,326.6606;358.2704,356.8079,344.1341;336.6904,17.70523,354.1525;10.17418,2.825779,350.8635;354.3986,5.154519,333.0886;359.8298,354.3759,354.4486;0;0;0;0;1; 1; 1; 0; 0; 
7.88;1;Position (-0.1679253, -0.2410676, -0.1341274), Orientation(0.8449917, 0.3834667, -0.3376936, -0.1578147);0,0,0;0,0,0;41.74764,295.1115,326.3601;29.94197,355.3274,344.438;352.0903,7.765713,335.0211;9.345314,353.0138,358.4729;3.980104,0.4257013,340.0717;357.11,0.8017396,322.2061;358.3996,2.950422,346.3758;359.299,4.932013,340.004;358.6471,0.5184773,327.0874;353.8939,0.1747303,348.566;354.3948,8.999787,346.174;355.2394,0.7375433,313.7075;357.6383,357.0418,335.2878;336.6904,17.70523,354.1525;10.20179,357.6079,352.1702;353.5427,5.859151,308.2932;358.6151,354.8134,325.9406;0;0;0;0;1; 1; 1; 1; 1; 1;Position (0.2146764, -0.3713191, -0.2445691), Orientation(0.08037805, -0.7192793, -0.1625826, 0.6706293);0,0,0;0,0,0;41.32215,295.4785,327.9393;31.32063,7.395896,350.6043;352.2523,7.684899,332.3872;9.295999,353.0154,357.884;4.008543,359.8644,338.0394;357.0893,0.8145941,334.32;358.1573,2.983759,357.9628;359.3738,5.883425,333.6584;358.6634,0.5096175,336.0315;355.0073,0.06352367,0.0790861;354.6764,12.66835,338.6965;355.4528,0.5577716,326.2485;358.255,356.8123,343.9237;336.6904,17.70523,354.1525;10.13711,2.637607,350.0748;354.3857,5.161117,332.7681;359.8269,354.3761,354.3854;0;0;0;0;1; 1; 1; 0; 0; 
7.89;1;Position (-0.1682664, -0.2410223, -0.1342521), Orientation(0.8444082, 0.3849097, -0.3377375, -0.1573307);0,0,0;0,0,0;41.8587,295.0116,325.9409;29.897,355.0525,344.3008;352.0745,7.77312,335.2755;9.362791,353.0134,358.6816;3.975299,0.2626958,339.9217;357.1105,0.8013898,321.9243;358.3941,2.951738,346.6425;359.2943,4.810618,339.8624;358.647,0.5185307,327.0403;353.9153,0.1704384,348.7895;354.3922,8.924623,345.9921;355.2371,0.7399591,313.558;357.643,357.0396,335.3565;336.6904,17.70523,354.1525;10.18526,357.3053,351.9203;353.544,5.857457,308.341;358.6161,354.8126,325.969;0;0;0;0;1; 1; 1; 1; 1; 1;Position (0.2144837, -0.3713632, -0.2441686), Orientation(0.08087297, -0.7177963, -0.169397, 0.6704721);0,0,0;0,0,0;41.22485,295.5591,328.2946;31.27793,6.776506,350.2826;352.2192,7.702163,332.9299;9.304571,353.0151,357.9864;3.979595,359.4503,338.2095;357.0897,0.8144011,334.1005;358.1602,2.983651,357.825;359.3623,5.657215,333.9267;358.6627,0.5099379,335.6554;354.9924,0.06352299,359.9263;354.6667,12.51357,338.7028;355.4475,0.5613385,325.9622;358.2442,356.8155,343.7767;336.6904,17.70523,354.1525;10.11147,2.515296,349.5295;354.3769,5.165679,332.5485;359.825,354.3763,354.3438;0;0;0;0;1; 1; 1; 0; 0; 
7.9;1;Position (-0.1684002, -0.241006, -0.1343003), Orientation(0.8441792, 0.38547, -0.3377593, -0.1571403);0,0,0;0,0,0;41.91544,294.9599,325.7255;29.87065,354.893,344.2214;352.0666,7.776787,335.4024;9.371887,353.0132,358.7902;3.972503,0.1754281,339.8485;357.1107,0.8012193,321.788;358.3912,2.952437,346.7861;359.2919,4.74916,339.7919;358.6469,0.5185586,327.0156;353.9256,0.1683852,348.898;354.3907,8.886097,345.9044;355.2361,0.7409793,313.495;357.6464,357.0381,335.4043;336.6904,17.70523,354.1525;10.1773,357.1547,351.8036;353.545,5.856223,308.3758;358.6169,354.8121,325.9883;0;0;0;0;1; 1; 1; 1; 1; 1;Position (0.2144086, -0.3713796, -0.2440107), Orientation(0.08106727, -0.7172105, -0.1720494, 0.6704003);0,0,0;0,0,0;41.18666,295.5904,328.4335;31.26043,6.534506,350.157;352.2062,7.708834,333.1423;9.307923,353.015,358.0265;3.968209,359.2885,338.2769;357.0898,0.8143255,334.0151;358.1614,2.983608,357.7714;359.3579,5.569281,334.0316;358.6624,0.5100645,335.5084;354.9866,0.06353347,359.8667;354.6629,12.45368,338.7053;355.4454,0.5627377,325.8504;358.24,356.8167,343.7194;336.6904,17.70523,354.1525;10.10143,2.469333,349.3161;354.3735,5.167457,332.4633;359.8243,354.3764,354.328;0;0;0;0;1; 1; 1; 0; 0; 
7.91;1;Position (-0.1689388, -0.2409785, -0.1342925), Orientation(0.8425742, 0.3877609, -0.3389281, -0.1576007);0,0,0;0,0,0;42.1389,294.7515,324.8692;29.72967,354.0605,343.8076;352.0312,7.792933,335.9685;9.395201,353.0127,359.0686;4.007566,0.5549594,339.3994;357.1125,0.7997839,320.654;358.3992,2.95053,346.3974;359.3234,5.363329,339.0104;358.6457,0.5193763,326.3011;353.9157,0.1703367,348.7949;354.3971,8.954536,345.6048;355.2278,0.7499164,312.9459;357.6376,357.0421,335.2786;336.6904,17.70523,354.1525;10.13283,356.7148,351.0254;353.5442,5.857179,308.3488;358.62,354.81,326.0713;0;0;0;0;1; 1; 1; 1; 1; 1;Position (0.2137656, -0.3716835, -0.2429154), Orientation(0.08649598, -0.711563, -0.1919824, 0.6703277);0,0,0;0,0,0;41.00525,295.7363,329.0889;31.05922,4.105092,348.8997;352.1455,7.739228,334.1305;9.309449,353.0149,358.0446;3.868263,357.7817,338.6563;357.0906,0.8139627,333.6083;358.1689,2.983294,357.4183;359.3253,4.91382,334.6908;358.6602,0.5111317,334.2999;354.9307,0.06394491,359.293;354.6236,11.87377,339.1172;355.4353,0.5696859,325.3001;358.2166,356.8236,343.3987;336.6904,17.70523,354.1525;10.03907,2.438374,347.9904;354.3474,5.181309,331.8078;359.8172,354.3771,354.172;0;0;0;0;1; 1; 1; 1; 0; 
7.92;1;Position (-0.1693248, -0.240965, -0.1342879), Orientation(0.8414412, 0.3893735, -0.3397562, -0.1578951);0,0,0;0,0,0;42.28629,294.61,324.2971;29.63355,353.511,343.5356;352.0074,7.803525,336.3468;9.411175,353.0125,359.2593;4.029126,0.7774354,339.0994;357.1137,0.7988073,319.8977;358.4036,2.94945,346.182;359.3432,5.746597,338.4928;358.6449,0.5199244,325.8295;353.9102,0.1714372,348.7371;354.4011,8.993532,345.4015;355.2226,0.7555017,312.6052;357.6334,357.044,335.2172;336.6904,17.70523,354.1525;10.1026,356.4188,350.5018;353.5441,5.857324,308.3447;358.6223,354.8085,326.1301;0;0;0;0;1; 1; 1; 1; 1; 1;Position (0.2133155, -0.3718913, -0.2421383), Orientation(0.09023968, -0.7074376, -0.2058676, 0.6700801);0,0,0;0,0,0;40.88303,295.8324,329.5267;30.90503,2.540881,348.0945;352.105,7.758777,334.785;9.310904,353.0148,358.062;3.801302,356.7942,338.9121;357.0911,0.8137172,333.3364;358.1738,2.98306,357.1835;359.3038,4.480397,335.1274;358.6587,0.5118563,333.5086;354.8937,0.06452667,358.9131;354.598,11.4918,339.388;355.4286,0.5743682,324.9336;358.2009,356.8283,343.1845;336.6904,17.70523,354.1525;9.997895,2.416571,347.1117;354.3303,5.190634,331.3744;359.8125,354.3776,354.0692;0;0;0;0;1; 1; 1; 1; 0; 
7.93;1;Position (-0.169476, -0.2409606, -0.1342863), Orientation(0.8409991, 0.3900014, -0.3400792, -0.1580054);0,0,0;0,0,0;42.34284,294.5548,324.0761;29.59601,353.3001,343.4314;351.9983,7.807566,336.4926;9.417369,353.0124,359.3333;4.037103,0.8576408,338.9838;357.1141,0.7984244,319.6043;358.4052,2.949066,346.1061;359.3508,5.893985,338.2934;358.6446,0.520137,325.6481;353.9083,0.1718279,348.7167;354.4025,9.007442,345.3229;355.2207,0.7575647,312.4798;357.632,357.0447,335.1969;336.6904,17.70523,354.1525;10.09081,356.3045,350.2985;353.5441,5.857308,308.3451;358.6231,354.8079,326.153;0;0;0;0;1; 1; 1; 1; 1; 1;Position (0.2131405, -0.3719713, -0.2418347), Orientation(0.09168451, -0.7057948, -0.2112497, 0.6699412);0,0,0;0,0,0;40.83571,295.8691,329.6954;30.84086,1.941901,347.7871;352.0893,7.766186,335.0372;9.311525,353.0148,358.0694;3.775234,356.4136,339.0109;357.0912,0.8136222,333.2318;358.1757,2.982965,357.0935;359.2955,4.31381,335.2952;358.6581,0.5121402,333.2045;354.8795,0.06481581,358.767;354.5883,11.34533,339.4915;355.4261,0.5761817,324.7925;358.1949,356.8301,343.1023;336.6904,17.70523,354.1525;9.982004,2.408194,346.7718;354.3237,5.194253,331.2078;359.8107,354.3778,354.0301;0;0;0;0;1; 1; 1; 1; 0; 
7.94;1;Position (-0.1700117, -0.2409537, -0.1342821), Orientation(0.8394596, 0.3921853, -0.341211, -0.1583463);0,0,0;0,0,0;42.5269,294.3717,323.3503;29.47046,352.6091,343.0907;351.9681,7.820657,336.9709;9.438428,353.0122,359.5847;4.061438,1.089954,338.606;357.1156,0.797178,318.662;358.4093,2.948025,345.9027;359.3753,6.365553,337.6501;358.6436,0.5208264,325.0656;353.9031,0.1728636,348.6627;354.4069,9.045132,345.0602;355.2149,0.7640239,312.0889;357.6291,357.046,335.1556;336.6904,17.70523,354.1525;10.05176,355.9251,349.6317;353.5446,5.85666,308.3634;358.6262,354.8058,326.2336;0;0;0;0;1; 1; 1; 1; 1; 1;Position (0.2125359, -0.3722406, -0.2407708), Orientation(0.09660534, -0.6999674, -0.229769, 0.6692678);0,0,0;0,0,0;40.67898,295.9887,330.2509;30.6225,0.07450115,346.8328;352.0379,7.789878,335.8604;9.314153,353.0147,358.1008;3.691072,355.2059,339.3416;357.0919,0.8133063,332.8869;358.1819,2.982632,356.7982;359.2688,3.773756,335.8426;358.6563,0.5130683,332.2322;354.8333,0.06600518,358.293;354.5571,10.87247,339.8249;355.4176,0.5821931,324.3283;358.1751,356.8362,342.8308;336.6904,17.70523,354.1525;9.931129,2.378007,345.6805;354.3025,5.2061,330.6685;359.8049,354.3784,353.9027;0;0;0;0;1; 1; 1; 1; 0; 
7.95;1;Position (-0.1707763, -0.2406893, -0.1343588), Orientation(0.8377476, 0.3940748, -0.3440527, -0.1565626);0,0,0;0,0,0;42.63103,294.2657,322.9354;29.48427,352.6841,343.1276;351.9821,7.814627,336.7495;9.427722,353.0123,359.4569;4.090716,1.560608,338.5078;357.1164,0.7964668,318.1321;358.4123,2.947271,345.7572;359.3876,6.620393,337.4922;358.6433,0.5210028,324.9179;353.8994,0.1736213,348.6233;354.4178,9.200402,344.8117;355.2111,0.768243,311.8349;357.6385,357.0417,335.2911;336.6904,17.70523,354.1525;10.02841,356.0034,349.1052;353.5341,5.870198,307.9825;358.6183,354.8112,326.025;0;0;0;0;1; 1; 1; 1; 1; 1;Position (0.2108909, -0.3722133, -0.2395619), Orientation(0.09912304, -0.6897861, -0.2667631, 0.6657382);0,0,0;0,0,0;40.37551,296.212,331.313;30.22097,357.1251,345.3391;351.9526,7.827277,337.2166;9.297435,353.0153,357.9012;3.510203,352.4453,339.5409;357.0929,0.8127578,332.2971;358.1927,2.981984,356.2895;359.2094,2.462774,336.1351;358.6525,0.5151837,330.1245;354.7383,0.06966184,357.3169;354.5297,10.39985,339.7536;355.3949,0.5989359,323.0623;358.1356,356.8486,342.2875;336.6904,17.70523,354.1525;9.848738,2.598096,343.9037;354.2548,5.233729,329.4443;359.787,354.3804,353.5084;0;0;0;0;1; 1; 1; 1; 1; 
7.96;1;Position (-0.1713019, -0.240514, -0.1344107), Orientation(0.8365652, 0.395377, -0.3459747, -0.1553619);0,0,0;0,0,0;42.7028,294.1916,322.6475;29.48374,352.6812,343.1262;351.9891,7.811571,336.638;9.422622,353.0123,359.396;4.109747,1.863195,338.4333;357.1169,0.7959845,317.7755;358.4141,2.946813,345.6695;359.3958,6.790168,337.3703;358.6431,0.5211371,324.8059;353.8972,0.1740676,348.6002;354.4246,9.296006,344.6468;355.2086,0.7711166,311.6624;357.6445,357.0389,335.377;336.6904,17.70523,354.1525;10.0125,356.0314,348.7569;353.5279,5.878231,307.7574;358.6137,354.8143,325.9035;0;0;0;0;1; 1; 1; 1; 1; 1;Position (0.2097805, -0.3721967, -0.2387329), Orientation(0.1007851, -0.6823235, -0.2914997, 0.662801);0,0,0;0,0,0;40.23457,296.3121,331.8005;30.03748,355.9242,344.7363;351.9152,7.842905,337.8063;9.288901,353.0157,357.7993;3.429809,351.254,339.6347;357.0934,0.812495,332.0188;358.1978,2.981641,356.0467;359.182,1.852135,336.261;358.6508,0.5161546,329.2011;354.6935,0.07195095,356.8565;354.5172,10.18084,339.7123;355.3846,0.6068289,322.4782;358.1168,356.8547,342.0289;336.6904,17.70523,354.1525;9.812773,2.710431,343.1245;354.2327,5.247007,328.8715;359.7781,354.3814,353.3119;0;0;0;0;1; 1; 1; 1; 1; 
7.97;1;Position (-0.1715038, -0.2404477, -0.1344305), Orientation(0.8361096, 0.3958773, -0.3467081, -0.1549042);0,0,0;0,0,0;42.73245,294.1608,322.5281;29.48147,352.6688,343.1201;351.9914,7.810561,336.6012;9.421013,353.0124,359.3768;4.117241,1.98149,338.4015;357.1171,0.7957863,317.63;358.4148,2.94664,345.6365;359.3992,6.858198,337.3176;358.6431,0.5211947,324.7579;353.8964,0.1742322,348.5917;354.4272,9.332383,344.5808;355.2075,0.7722779,311.5929;357.6468,357.0379,335.4106;336.6904,17.70523,354.1525;10.00601,356.0374,348.617;353.5255,5.881211,307.674;358.612,354.8154,325.8589;0;0;0;0;1; 1; 1; 1; 1; 1;Position (0.2093571, -0.3721906, -0.2384148), Orientation(0.1014079, -0.6793537, -0.3008809, 0.661563);0,0,0;0,0,0;40.18564,296.3463,331.9688;29.97378,355.5242,344.5363;351.9024,7.848141,338.0073;9.28591,353.0158,357.7635;3.402346,350.8521,339.6684;357.0936,0.8124031,331.9218;358.1996,2.981515,355.9619;359.1725,1.640834,336.3051;358.6502,0.5164904,328.8876;354.6779,0.07283165,356.6963;354.5128,10.10449,339.6982;355.381,0.6095753,322.2767;358.1103,356.8568,341.9387;336.6904,17.70523,354.1525;9.80053,2.74995,342.8588;354.225,5.251662,328.673;359.7749,354.3818,353.2426;0;0;0;0;1; 1; 1; 1; 1; 
7.98;1;Position (-0.1721919, -0.2402311, -0.1344968), Orientation(0.8345533, 0.3975913, -0.3491648, -0.1533823);0,0,0;0,0,0;42.85044,294.0364,322.0504;29.45679,352.5351,343.0543;351.9962,7.808456,336.5248;9.418439,353.0124,359.346;4.143961,2.392355,338.2637;357.118,0.7950161,317.0676;358.417,2.946073,345.5286;359.4118,7.113052,337.0873;358.6427,0.5214435,324.5512;353.8939,0.1747362,348.5657;354.4364,9.455359,344.3346;355.2036,0.7766981,311.3288;357.6551,357.0341,335.5304;336.6904,17.70523,354.1525;9.981031,356.0168,348.0965;353.5183,5.89073,307.4084;358.6068,354.819,325.7212;0;0;0;0;1; 1; 1; 1; 1; 1;Position (0.2079451, -0.3721731, -0.237334), Orientation(0.1034835, -0.6689491, -0.3319446, 0.6569713);0,0,0;0,0,0;39.99721,296.4757,332.6135;29.70282,353.9055,343.7308;351.851,7.868711,338.8143;9.276031,353.0162,357.6455;3.2965,349.3368,339.8311;357.0943,0.8120461,331.5489;358.2064,2.981014,355.6386;359.1373,0.8587841,336.5242;358.6481,0.5177938,327.6966;354.6198,0.07650998,356.0979;354.495,9.794449,339.6748;355.3679,0.6198822,321.5288;358.0855,356.865,341.5974;336.6904,17.70523,354.1525;9.752876,2.884053,341.8209;354.1968,5.269166,327.9362;359.7635,354.3831,352.9919;0;0;0;0;1; 1; 1; 1; 1; 
7.99;1;Position (-0.1726421, -0.2400917, -0.1345399), Orientation(0.8335321, 0.3987099, -0.3507557, -0.1523975);0,0,0;0,0,0;42.93921,293.9413,321.688;29.43297,352.4068,342.9912;351.9984,7.80751,336.4906;9.417767,353.0124,359.338;4.162986,2.681515,338.1556;357.1186,0.7944368,316.6484;358.4185,2.94568,345.4547;359.4212,7.30047,336.9062;358.6424,0.5216392,324.3895;353.8923,0.1750662,348.5487;354.4428,9.54079,344.1538;355.2008,0.7799833,311.1332;357.661,357.0314,335.6163;336.6904,17.70523,354.1525;9.962471,355.9862,347.7157;353.5134,5.897169,307.2293;358.6033,354.8213,325.6305;0;0;0;0;1; 1; 1; 1; 1; 1;Position (0.2070778, -0.3721625, -0.2366689), Orientation(0.1047015, -0.6622236, -0.3507591, 0.6538085);0,0,0;0,0,0;39.85653,296.5698,333.0908;29.48435,352.6845,343.1278;351.8119,7.883791,339.425;9.269262,353.0164,357.5647;3.217125,348.224,339.9651;357.0948,0.8117776,331.2713;358.2115,2.980619,355.399;359.1116,0.2884368,336.7045;358.6466,0.5187831,326.818;354.5771,0.0795951,355.659;354.4814,9.55784,339.6684;355.3584,0.6275207,320.9824;358.0673,356.8711,341.3453;336.6904,17.70523,354.1525;9.717422,2.9778,341.0451;354.1764,5.282179,327.398;359.7553,354.3842,352.8109;0;0;0;0;1; 1; 1; 1; 1; 
8;1;Position (-0.1727337, -0.2400624, -0.133775), Orientation(0.8312098, 0.4034575, -0.3521253, -0.1493991);0,0,0;0,0,0;43.00453,293.8705,321.4197;29.35605,351.9973,342.7902;351.9908,7.810809,336.6103;9.436992,353.0122,359.5676;4.178608,2.971272,338.1605;357.1187,0.7942737,316.5308;358.4274,2.94334,345.0204;359.4271,7.379431,336.4578;358.6405,0.523075,323.2217;353.8534,0.183131,348.1405;354.4485,9.566552,343.6551;355.1813,0.8028443,309.7878;357.6296,357.0458,335.1621;336.6904,17.70523,354.1525;9.904897,355.9422,346.5098;353.4956,5.921081,306.5677;358.5947,354.8273,325.4003;0;0;0;0;1; 1; 1; 1; 1; 1;Position (0.2057863, -0.3717813, -0.2352872), Orientation(0.1018015, -0.6484161, -0.3805363, 0.6514484);0,0,0;0,0,0;39.71817,296.6602,333.557;29.12656,350.8162,342.2133;351.7601,7.902993,340.2287;9.253861,353.0172,357.3807;3.169349,347.421,339.7251;357.0952,0.8115078,330.9948;358.2202,2.979882,354.9837;359.0479,358.7915,336.549;358.6464,0.518921,326.6973;354.5512,0.08163369,355.3919;354.4524,9.013499,339.4297;355.3517,0.6330721,320.5892;358.0627,356.8726,341.2817;336.6904,17.70523,354.1525;9.672698,2.959563,340.0565;354.1484,5.300409,326.6572;359.745,354.3855,352.5836;0;0;0;0;1; 1; 1; 1; 1; 
8.01;1;Position (-0.1728685, -0.2400269, -0.1330737), Orientation(0.8289292, 0.4079372, -0.3535327, -0.1465546);0,0,0;0,0,0;43.08961,293.777,321.0682;29.27467,351.5717,342.5819;351.9829,7.814252,336.7358;9.455442,353.0121,359.7879;4.196323,3.281941,338.1296;357.1191,0.7939499,316.2985;358.4357,2.941092,344.6146;359.4347,7.495543,335.9989;358.6386,0.5244625,322.1227;353.817,0.1909346,347.7582;354.4547,9.601879,343.1628;355.1633,0.8251115,308.5023;357.6035,357.058,334.784;336.6904,17.70523,354.1525;9.849,355.878,345.3434;353.4786,5.944417,305.9276;358.5865,354.8329,325.1835;0;0;0;0;1; 1; 1; 1; 1; 1;Position (0.204509, -0.3714311, -0.233931), Orientation(0.0992268, -0.6342704, -0.4094979, 0.6482026);0,0,0;0,0,0;39.55441,296.7647,334.1049;28.7123,348.8183,341.2471;351.702,7.923584,341.127;9.238907,353.0179,357.2021;3.099674,346.3457,339.567;357.0958,0.8111902,330.6724;358.2293,2.979047,354.5508;358.9864,357.3394,336.4876;358.6457,0.5194068,326.2746;354.5165,0.08455084,355.0345;354.4232,8.459601,339.2187;355.343,0.6402364,320.0867;358.0536,356.8757,341.1565;336.6904,17.70523,354.1525;9.622934,2.958457,338.95;354.1187,5.320363,325.8626;359.7339,354.387,352.34;0;0;0;0;1; 1; 1; 1; 1; 
8.02;1;Position (-0.1730373, -0.2399864, -0.1324229), Orientation(0.8266791, 0.4122043, -0.3549674, -0.143831);0,0,0;0,0,0;43.18692,293.6685,320.6631;29.18987,351.1362,342.3692;351.9748,7.817785,336.8653;9.473356,353.0121,0.001792288;4.21539,3.606663,338.0751;357.1195,0.7935234,315.9938;358.4437,2.938848,344.2196;359.4434,7.636525,335.5334;358.6369,0.525816,321.0762;353.7827,0.1985555,347.396;354.4612,9.6438,342.6755;355.1465,0.8468227,307.2705;357.5807,357.0688,334.4544;336.6904,17.70523,354.1525;9.794518,355.8006,344.2083;353.4623,5.96726,305.3058;358.5786,354.8384,324.9734;0;0;0;0;1; 1; 1; 1; 1; 1;Position (0.2032434, -0.3711054, -0.2325954), Orientation(0.09689097, -0.6197582, -0.4377078, 0.6441457);0,0,0;0,0,0;39.37407,296.8766,334.7034;28.25043,346.7571,340.264;351.6398,7.944479,342.0828;9.224277,353.0186,357.0273;3.016436,345.1134,339.4628;357.0964,0.8108398,330.3202;358.2387,2.978119,354.1067;358.9266,355.9203,336.4867;358.6446,0.5201048,325.6754;354.4763,0.08821019,354.6195;354.394,7.899958,339.0277;355.3333,0.6484624,319.5161;358.0417,356.8798,340.9913;336.6904,17.70523,354.1525;9.570379,2.969377,337.773;354.088,5.3416,325.0345;359.7224,354.3885,352.0856;0;0;0;0;1; 1; 1; 1; 1; 
8.03;1;Position (-0.173169, -0.2399561, -0.1319837), Orientation(0.8251019, 0.4151253, -0.3559854, -0.1419586);0,0,0;0,0,0;43.26131,293.5844,320.3513;29.12712,350.819,342.2147;351.9688,7.820356,336.9599;9.486052,353.0121,0.1533441;4.229608,3.846064,338.0269;357.1199,0.793177,315.7478;358.4494,2.937223,343.9397;359.4501,7.747515,335.1955;358.6358,0.5267844,320.3417;353.7587,0.2040035,347.1432;354.466,9.676519,342.3264;355.1349,0.8623117,306.404;357.5657,357.076,334.2358;336.6904,17.70523,354.1525;9.755816,355.7401,343.4014;353.451,5.983552,304.8654;358.573,354.8424,324.8237;0;0;0;0;1; 1; 1; 1; 1; 1;Position (0.2023564, -0.3708853, -0.2316626), Orientation(0.09531672, -0.6092764, -0.4571781, 0.6408473);0,0,0;0,0,0;39.23767,296.9591,335.1528;27.89139,345.2538,339.5566;351.5934,7.959324,342.7929;9.21388,353.0192,356.903;2.951239,344.1707,339.4085;357.0969,0.8105735,330.0552;358.2455,2.977395,353.7823;358.8844,354.9084,336.5087;358.6438,0.5206876,325.1821;354.4453,0.09123487,354.2992;354.373,7.494323,338.8983;355.326,0.6548138,319.08;358.0321,356.8831,340.8573;336.6904,17.70523,354.1525;9.531618,2.982219,336.8989;354.0656,5.357519,324.4248;359.7139,354.3897,351.8982;0;0;0;0;1; 1; 1; 1; 1; 
8.04;1;Position (-0.1728572, -0.2399332, -0.1326898), Orientation(0.8231058, 0.4200327, -0.3575523, -0.1350027);0,0,0;0,0,0;43.22323,293.6276,320.5112;29.1116,350.7412,342.1768;351.9932,7.809782,336.5729;9.498972,353.0121,0.3076548;4.216621,3.645931,338.1045;357.1191,0.7939329,316.2863;358.4429,2.939088,344.2615;359.4257,7.238243,335.4657;358.6344,0.5278925,319.515;353.7192,0.2132157,346.7264;354.4522,9.430333,342.2887;355.1295,0.8696225,305.9983;357.5462,357.0855,333.9513;336.6904,17.70523,354.1525;9.779944,355.8812,343.8587;353.4481,5.987651,304.7549;358.5677,354.8462,324.6804;0;0;0;0;1; 1; 1; 1; 1; 1;Position (0.2007883, -0.3696419, -0.2300117), Orientation(0.08890982, -0.5989408, -0.4755097, 0.6381658);0,0,0;0,0,0;39.4721,296.8162,334.3787;27.70292,344.4947,339.2026;351.5796,7.963617,343.0036;9.188327,353.0206,356.5977;2.972654,344.3784,339.1873;357.097,0.8104953,329.9778;358.2511,2.97677,353.5151;358.866,354.4218,336.1533;358.6438,0.5206512,325.2128;354.4313,0.09265427,354.1549;354.3441,6.884343,338.4748;355.3272,0.653729,319.1542;358.0449,356.8787,341.0347;336.6904,17.70523,354.1525;9.498989,2.705567,336.1517;354.0551,5.365159,324.1353;359.7108,354.3902,351.8307;0;0;0;0;1; 1; 1; 1; 1; 
8.05;1;Position (-0.1726113, -0.2399046, -0.1333081), Orientation(0.8210191, 0.424798, -0.3591348, -0.1284383);0,0,0;0,0,0;43.21432,293.6376,320.5485;29.08286,350.5978,342.107;352.0129,7.801102,336.2597;9.512368,353.0122,0.4676477;4.208848,3.527314,338.1523;357.1186,0.7944301,316.6436;358.438,2.940457,344.5018;359.4068,6.836256,335.6151;358.6331,0.5290288,318.6814;353.6815,0.2223111,346.3272;354.4411,9.220848,342.1884;355.123,0.8786787,305.4987;357.5277,357.0946,333.6806;336.6904,17.70523,354.1525;9.790849,355.9858,344.0478;353.4439,5.993786,304.5899;358.5621,354.8501,324.5317;0;0;0;0;1; 1; 1; 1; 1; 1;Position (0.1992288, -0.368484, -0.2283754), Orientation(0.08299088, -0.5877535, -0.4947113, 0.6347591);0,0,0;0,0,0;39.62162,296.7222,333.8806;27.41879,343.3851,338.6891;351.5539,7.971462,343.3953;9.164235,353.0222,356.3097;2.964174,344.1818,339.0035;357.0973,0.8103576,329.8417;358.2574,2.976034,353.2143;358.8403,353.7627,335.8812;358.6435,0.5208641,325.034;354.4102,0.09486699,353.9368;354.3156,6.278974,338.0881;355.3259,0.6548751,319.0758;358.0525,356.8761,341.14;336.6904,17.70523,354.1525;9.460599,2.469668,335.2743;354.0403,5.375983,323.7287;359.7064,354.3908,351.7315;0;0;0;0;1; 1; 1; 1; 1; 
8.059999;1;Position (-0.1724628, -0.2398817, -0.133715), Orientation(0.8194706, 0.428161, -0.3602764, -0.1238824);0,0,0;0,0,0;43.21972,293.6315,320.5259;29.05565,350.4627,342.0414;352.0255,7.795457,336.0581;9.522595,353.0123,0.5897885;4.205292,3.473611,338.1751;357.1183,0.7946987,316.8374;358.4351,2.941265,344.6455;359.3951,6.582157,335.6764;358.6321,0.5299017,318.0504;353.6541,0.2290944,346.0367;354.434,9.080435,342.0864;355.1177,0.8862596,305.0828;357.5141,357.1014,333.4807;336.6904,17.70523,354.1525;9.793669,356.048,344.0815;353.4402,5.999276,304.4424;358.5579,354.8531,324.4184;0;0;0;0;1; 1; 1; 1; 1; 1;Position (0.1981105, -0.3676878, -0.2272044), Orientation(0.07893243, -0.5792623, -0.5088326, 0.6319131);0,0,0;0,0,0;39.70008,296.6719,333.6178;27.16135,342.4127,338.2433;351.5298,7.978668,343.7632;9.146907,353.0233,356.1024;2.946234,343.8795,338.8828;357.0975,0.8102283,329.7149;358.2625,2.975424,352.9742;358.8179,353.1951,335.7135;358.6432,0.5211244,324.8165;354.3914,0.09691066,353.7421;354.2946,5.825758,337.8165;355.3239,0.656645,318.955;358.0559,356.8749,341.1882;336.6904,17.70523,354.1525;9.429368,2.310826,334.5588;354.0274,5.385506,323.3742;359.7024,354.3914,351.6435;0;0;0;0;1; 1; 1; 1; 1; 
8.07;1;Position (-0.1724086, -0.2398723, -0.1338693), Orientation(0.8188536, 0.4294703, -0.3607237, -0.1221176);0,0,0;0,0,0;43.2234,293.6274,320.5105;29.04404,350.4053,342.0135;352.0303,7.793329,335.9825;9.526704,353.0124,0.6388527;4.204171,3.456785,338.1824;357.1182,0.794792,316.905;358.434,2.941562,344.6986;359.3907,6.487878,335.6944;358.6317,0.5302572,317.7956;353.6432,0.2318278,345.9214;354.4313,9.026511,342.0422;355.1155,0.8894122,304.9105;357.5086,357.1041,333.401;336.6904,17.70523,354.1525;9.794115,356.0706,344.0815;353.4386,6.001589,304.3804;358.5562,354.8543,324.3729;0;0;0;0;1; 1; 1; 1; 1; 1;Position (0.1976721, -0.3673806, -0.2267457), Orientation(0.07736555, -0.5758473, -0.5144012, 0.6307186);0,0,0;0,0,0;39.72699,296.6545,333.5274;27.05128,342.0059,338.058;351.5194,7.981686,343.9198;9.140062,353.0238,356.0206;2.937613,343.7398,338.8372;357.0976,0.8101734,329.6611;358.2645,2.975168,352.8762;358.8086,352.958,335.6519;358.643,0.5212411,324.7192;354.3834,0.09778869,353.6603;354.2863,5.643828,337.7099;355.3229,0.6574673,318.8989;358.057,356.8745,341.2034;336.6904,17.70523,354.1525;9.416538,2.249728,334.2643;354.0221,5.389514,323.2259;359.7007,354.3916,351.6066;0;0;0;0;1; 1; 1; 1; 1; 
8.08;1;Position (-0.1722424, -0.2400991, -0.1357273), Orientation(0.8171427, 0.4338151, -0.3633551, -0.109798);0,0,0;0,0,0;43.30278,293.537,320.1767;28.96209,350.0039,341.8189;352.0472,7.785676,335.7125;9.521382,353.0123,0.5752947;4.156869,2.856477,338.6832;357.1168,0.7960564,317.8287;358.4231,2.944485,345.2313;359.3735,6.169939,336.2845;358.6309,0.5310609,317.2241;353.5798,0.2482385,345.2473;354.4171,8.81564,342.3183;355.1114,0.8954002,304.5842;357.482,357.1176,333.0097;336.6904,17.70523,354.1525;9.820895,356.2292,344.5905;353.442,5.996614,304.5139;358.5526,354.8569,324.2762;0;0;0;0;1; 1; 1; 1; 1; 1;Position (0.1894053, -0.3574543, -0.215091), Orientation(0.05759066, -0.5689483, -0.5293206, 0.6267382);0,0,0;0,0,0;39.86151,296.5665,333.074;27.22065,342.634,338.3445;351.4969,7.988174,344.2614;9.125752,353.0248,355.8495;3.019864,344.6856,338.3379;357.0981,0.8098876,329.3822;358.2677,2.974766,352.7245;358.8148,353.0354,335.028;358.6437,0.5207232,325.1522;354.3906,0.09699854,353.7339;354.2723,5.259393,337.0605;355.3345,0.6474251,319.5876;358.0953,356.8617,341.7323;336.6904,17.70523,354.1525;9.401604,1.69419,333.943;354.0382,5.37751,323.6717;359.7091,354.3904,351.7916;0;0;0;0;1; 1; 1; 1; 1; 
8.09;1;Position (-0.172109, -0.2403015, -0.1374312), Orientation(0.8152355, 0.4380601, -0.3658577, -0.09819768);0,0,0;0,0,0;43.37953,293.4485,319.8517;28.88231,349.6192,341.6329;352.0626,7.778607,335.4656;9.518737,353.0123,0.5437177;4.11701,2.359668,339.1104;357.1157,0.7970643,318.577;358.4135,2.946977,345.7007;359.3581,5.880199,336.7532;358.6299,0.5319241,316.6172;353.521,0.2641557,344.621;354.4048,8.623371,342.5125;355.1065,0.9025283,304.1974;357.4567,357.1306,332.6367;336.6904,17.70523,354.1525;9.839718,356.3642,344.9391;353.4438,5.993993,304.5844;358.5488,354.8596,324.173;0;0;0;0;1; 1; 1; 1; 1; 1;Position (0.1816935, -0.3482991, -0.2042669), Orientation(0.03930973, -0.560875, -0.5448918, 0.6220666);0,0,0;0,0,0;39.96545,296.4971,332.7215;27.24503,342.7255,338.3863;351.4695,7.995874,344.6764;9.111223,353.0259,355.6757;3.071469,345.2323,337.9023;357.0986,0.8095988,329.1029;358.2716,2.974266,352.5399;358.8123,352.9047,334.4739;358.6441,0.5204453,325.3864;354.3904,0.09702016,353.7318;354.2569,4.849697,336.4671;355.3428,0.6403999,320.0753;358.1266,356.8515,342.1643;336.6904,17.70523,354.1525;9.378978,1.192612,333.4601;354.047,5.371014,323.9149;359.7151,354.3896,351.924;0;0;0;0;1; 1; 1; 1; 1; 
8.099999;1;Position (-0.1720273, -0.2404362, -0.1385878), Orientation(0.8137657, 0.4410555, -0.3675911, -0.09017846);0,0,0;0,0,0;43.43561,293.3831,319.613;28.82348,349.3393,341.4978;352.0734,7.773633,335.2932;9.517917,353.0123,0.5338954;4.089575,2.021234,339.4052;357.1149,0.79774,319.0848;358.407,2.948618,346.0184;359.3475,5.678663,337.053;358.6292,0.5325987,316.1474;353.4795,0.2758259,344.1772;354.3964,8.489129,342.623;355.1026,0.9083576,303.8824;357.4386,357.14,332.3687;336.6904,17.70523,354.1525;9.850534,356.4544,345.1347;353.4444,5.993043,304.6099;358.5459,354.8618,324.0935;0;0;0;0;1; 1; 1; 1; 1; 1;Position (0.1763975, -0.3420604, -0.1968561), Orientation(0.02682963, -0.5545106, -0.5562814, 0.6183439);0,0,0;0,0,0;40.03049,296.4531,332.5001;27.21112,342.5984,338.3282;351.447,8.002054,345.0176;9.100316,353.0268,355.5452;3.099137,345.4948,337.5926;357.0989,0.8093817,328.8942;358.2747,2.973844,352.3881;358.8069,352.7247,334.0877;358.6443,0.5203297,325.4845;354.3872,0.09737141,353.699;354.2448,4.532471,336.0518;355.3477,0.6363157,320.361;358.1471,356.845,342.4463;336.6904,17.70523,354.1525;9.35899,0.8461452,333.0353;354.0508,5.368294,324.0172;359.7185,354.3891,352.0003;0;0;0;0;1; 1; 1; 1; 1; 
8.11;1;Position (-0.172132, -0.2411425, -0.1393696), Orientation(0.8132932, 0.4428889, -0.3673139, -0.08651179);0,0,0;0,0,0;43.47336,293.3387,319.4516;28.79554,349.2074,341.4342;352.0749,7.772931,335.269;9.511282,353.0122,0.4546457;4.078215,1.863405,339.4931;357.1145,0.7980698,319.3345;358.4026,2.949702,346.232;359.3436,5.595002,337.0833;358.6292,0.5326494,316.1122;353.4719,0.2780051,344.0956;354.3946,8.431476,342.4521;355.1011,0.9105415,303.7647;357.4334,357.1427,332.292;336.6904,17.70523,354.1525;9.848024,356.4529,345.0815;353.4436,5.994241,304.5776;358.5436,354.8634,324.0335;0;0;0;0;1; 1; 1; 1; 1; 1;Position (0.1733238, -0.3377794, -0.19155), Orientation(0.01769015, -0.5525439, -0.5585418, 0.6183957);0,0,0;0,0,0;40.07291,296.4242,332.3553;27.29743,342.9229,338.4768;351.4523,8.000616,344.9376;9.098251,353.0269,355.5205;3.144345,346.1089,337.5184;357.0991,0.809254,328.7722;358.2756,2.973733,352.3484;358.8228,353.1108,334.0584;358.6447,0.520048,325.724;354.3922,0.09681507,353.7511;354.2444,4.50725,335.9448;355.3561,0.6293843,320.85;358.1649,356.8394,342.6912;336.6904,17.70523,354.1525;9.36902,0.543033,333.3102;354.064,5.358703,324.3798;359.724,354.3883,352.1219;0;0;0;0;1; 1; 1; 1; 1; 
8.12;1;Position (-0.172481, -0.2434282, -0.141943), Orientation(0.8114454, 0.4491014, -0.3665643, -0.07412861);0,0,0;0,0,0;43.59539,293.1934,318.9263;28.70115,348.7666,341.2222;352.0804,7.770357,335.1803;9.492281,353.0121,0.2277536;4.041234,1.355011,339.7827;357.1133,0.7991424,320.1559;358.3886,2.953039,346.9114;359.3308,5.319204,337.1824;358.6288,0.5329866,315.8791;353.4435,0.2862161,343.792;354.3886,8.240937,341.9108;355.0957,0.9186922,303.3268;357.4153,357.1523,332.0234;336.6904,17.70523,354.1525;9.839512,356.4517,344.8993;353.4405,5.998751,304.4565;358.5362,354.8688,323.8315;0;0;0;0;1; 1; 1; 1; 1; 1;Position (0.1630818, -0.3236528, -0.1740014), Orientation(-0.01235417, -0.5445006, -0.5675446, 0.6174622);0,0,0;0,0,0;40.20039,296.336,331.9182;27.4674,343.5721,338.7753;351.459,7.99877,344.8354;9.089964,353.0276,355.4214;3.262383,347.7012,337.2521;357.0998,0.8088262,328.3663;358.279,2.97327,352.1858;358.8613,354.0383,333.9484;358.6458,0.519317,326.3523;354.4034,0.09559933,353.8664;354.2398,4.35031,335.5758;355.3818,0.6089858,322.3199;358.2237,356.8215,343.4957;336.6904,17.70523,354.1525;9.384873,359.5786,333.8535;354.0996,5.333471,325.3495;359.7403,354.3861,352.4807;0;0;0;0;1; 1; 1; 1; 1; 
8.13;1;Position (-0.1727221, -0.2449741, -0.143704), Orientation(0.8099977, 0.4534093, -0.3661053, -0.06550363);0,0,0;0,0,0;43.68101,293.0896,318.5543;28.63223,348.4495,341.0701;352.0846,7.768399,335.1131;9.480042,353.0121,0.08160016;4.015321,1.00277,339.9875;357.1124,0.7998825,320.7309;358.379,2.955239,347.379;359.3217,5.123988,337.2523;358.6285,0.5333045,315.6603;353.4218,0.2926164,343.5591;354.3843,8.105628,341.5387;355.0916,0.9249796,302.9906;357.402,357.1594,331.8253;336.6904,17.70523,354.1525;9.833342,356.4527,344.7664;353.4381,6.002223,304.3634;358.5308,354.8728,323.6865;0;0;0;0;1; 1; 1; 1; 1; 1;Position (0.1560155, -0.3139701, -0.1619548), Orientation(-0.03288995, -0.5380994, -0.5742514, 0.6161191);0,0,0;0,0,0;40.28622,296.2757,331.6223;27.54616,343.8775,338.9164;351.4594,7.998671,344.83;9.083373,353.0281,355.3425;3.335117,348.6835,337.0568;357.1003,0.8085166,328.0753;358.2817,2.97289,352.0549;358.8837,354.5713,333.8628;358.6465,0.5188755,326.737;354.4089,0.09500282,353.9237;354.235,4.204942,335.3049;355.4004,0.5948682,323.3664;358.2647,356.8095,344.0561;336.6904,17.70523,354.1525;9.388935,358.9152,334.1068;354.1221,5.318029,325.9548;359.7512,354.3847,352.7196;0;0;0;0;1; 1; 1; 1; 1; 
8.139999;1;Position (-0.1728152, -0.245566, -0.1443813), Orientation(0.8094066, 0.4550708, -0.3659335, -0.06216304);0,0,0;0,0,0;43.71444,293.0486,318.4083;28.60482,348.3244,341.0102;352.0862,7.767617,335.0862;9.475456,353.0121,0.02684315;4.00516,0.8652983,340.0677;357.112,0.800171,320.9571;358.3752,2.956076,347.5612;359.3181,5.047483,337.2795;358.6284,0.5334395,315.5676;353.4131,0.2952169,343.4654;354.3826,8.05262,341.3938;355.09,0.92752,302.855;357.3967,357.1622,331.7466;336.6904,17.70523,354.1525;9.830907,356.4533,344.7139;353.4372,6.003619,304.326;358.5287,354.8743,323.6294;0;0;0;0;1; 1; 1; 1; 1; 1;Position (0.153289, -0.3102435, -0.1573156), Orientation(-0.04078238, -0.535479, -0.5768856, 0.6154691);0,0,0;0,0,0;40.31983,296.2518,331.506;27.57157,343.9767,338.9623;351.459,7.998791,344.8366;9.080701,353.0284,355.3105;3.363137,349.0644,336.98;357.1005,0.8083939,327.9607;358.2828,2.972734,352.0016;358.8918,354.761,333.8284;358.6467,0.518715,326.8777;354.4108,0.0948054,353.9428;354.2329,4.143507,335.1973;355.4078,0.5893202,323.7847;358.2809,356.805,344.2762;336.6904,17.70523,354.1525;9.389363,358.6559,334.1876;354.1304,5.312446,326.1759;359.7554,354.3842,352.8124;0;0;0;0;1; 1; 1; 1; 1; 
8.15;1;Position (-0.1731324, -0.2475351, -0.1466662), Orientation(0.807185, 0.4607893, -0.3654565, -0.05066745);0,0,0;0,0,0;43.83033,292.9049,317.8986;28.50675,347.8816,340.7985;352.0924,7.764707,334.9867;9.460647,353.0121,359.85;3.970271,0.3980314,340.3471;357.1108,0.8011434,321.7273;358.3625,2.958811,348.1765;359.3058,4.780591,337.3753;358.6278,0.533997,315.1863;353.3807,0.3050013,343.1173;354.3766,7.866761,340.9041;355.084,0.9369692,302.3528;357.3776,357.1725,331.4619;336.6904,17.70523,354.1525;9.822218,356.4578,344.5254;353.4337,6.008843,304.1862;358.5213,354.8798,323.4272;0;0;0;0;1; 1; 1; 1; 1; 1;Position (0.1440039, -0.2976478, -0.1416077), Orientation(-0.06736445, -0.5254672, -0.586767, 0.6124138);0,0,0;0,0,0;40.43529,296.1689,331.1052;27.62372,344.1813,339.0571;351.4529,8.000442,344.9279;9.070476,353.0292,355.1881;3.459997,350.3939,336.7121;357.1012,0.8079576,327.5562;358.2871,2.972125,351.7971;358.9154,355.3148,333.6974;358.6475,0.5182199,327.3155;354.4147,0.09438885,353.9833;354.224,3.891015,334.8105;355.4333,0.5710912,325.1898;358.3356,356.7899,345.0209;336.6904,17.70523,354.1525;9.384587,357.7835,334.3518;354.1582,5.293951,326.918;359.7696,354.3824,353.1248;0;0;0;0;1; 1; 1; 1; 1; 
8.16;1;Position (-0.1739981, -0.2521334, -0.1514227), Orientation(0.8060568, 0.4669387, -0.3604026, -0.04848352);0,0,0;0,0,0;43.72417,293.0367,318.3657;28.48743,347.7952,340.7573;352.0824,7.769421,335.1482;9.452611,353.0121,359.754;3.92286,359.4965,340.2011;357.1104,0.8014545,321.9764;358.3553,2.960304,348.526;359.2934,4.496912,337.3182;358.6282,0.5336547,315.4201;353.397,0.3000462,343.2927;354.3696,7.698555,340.6366;355.0874,0.9316516,302.6351;357.3813,357.1706,331.5169;336.6904,17.70523,354.1525;9.812814,356.5058,344.3039;353.4287,6.01625,303.9883;358.5174,354.8827,323.3208;0;0;0;0;1; 1; 1; 1; 1; 1;Position (0.1386381, -0.2910914, -0.132738), Orientation(-0.08700654, -0.5182347, -0.5921583, 0.6109101);0,0,0;0,0,0;40.8032,295.8941,329.811;27.85534,345.1071,339.488;351.5249,7.980099,343.8372;9.042191,353.0317,354.8495;3.581644,351.9805,336.1188;357.1019,0.8075219,327.1565;358.2887,2.971892,351.7202;358.9515,356.1609,333.5372;358.6479,0.5179214,327.582;354.4286,0.09293287,354.127;354.2299,3.906215,334.1699;355.4516,0.5585973,326.1821;358.3854,356.7769,345.695;336.6904,17.70523,354.1525;9.337185,356.3633,333.8282;354.1876,5.275012,327.6935;359.7842,354.3807,353.4474;0;0;0;0;1; 1; 1; 1; 1; 
8.17;1;Position (-0.1745885, -0.2552597, -0.1546746), Orientation(0.805143, 0.4712605, -0.3570549, -0.04658426);0,0,0;0,0,0;43.66616,293.1077,318.619;28.46892,347.7127,340.718;352.0763,7.772246,335.2454;9.447127,353.0121,359.6886;3.890743,358.9035,340.1211;357.1101,0.8016912,322.167;358.3502,2.96133,348.7725;359.285,4.304172,337.2849;358.6283,0.5335092,315.5198;353.4047,0.2977322,343.3752;354.365,7.582803,340.4471;355.0889,0.9292212,302.7644;357.3825,357.1699,331.5351;336.6904,17.70523,354.1525;9.806417,356.5375,344.1536;353.4253,6.021305,303.8535;358.5145,354.8848,323.2433;0;0;0;0;1; 1; 1; 1; 1; 1;Position (0.1347516, -0.2863413, -0.1263383), Orientation(-0.1008963, -0.5125911, -0.5963935, 0.6094137);0,0,0;0,0,0;41.04547,295.7043,328.9442;27.98644,345.6442,339.7395;351.5663,7.967717,343.2073;9.023482,353.0334,354.6254;3.662043,353.049,335.7276;357.1024,0.8072217,326.8835;358.2901,2.971696,351.6562;358.9743,356.6896,333.4266;358.6483,0.517723,327.7604;354.4369,0.09207963,354.2129;354.2325,3.890108,333.7461;355.4641,0.5502911,326.8562;358.4191,356.7685,346.1503;336.6904,17.70523,354.1525;9.303072,355.4387,333.4911;354.2076,5.262399,328.2191;359.7941,354.3796,353.6644;0;0;0;0;1; 1; 1; 1; 1; 
8.179999;1;Position (-0.1748157, -0.2564609, -0.1559269), Orientation(0.8047672, 0.4729408, -0.3557807, -0.04579189);0,0,0;0,0,0;43.64573,293.1325,318.7079;28.46068,347.676,340.7005;352.0741,7.773287,335.2813;9.444979,353.0121,359.6629;3.877964,358.671,340.0929;357.11,0.8017893,322.2462;358.3481,2.961736,348.8716;359.2817,4.228069,337.2728;358.6284,0.533466,315.5494;353.4071,0.2969954,343.4016;354.3631,7.536941,340.3708;355.0894,0.9284568,302.8051;357.3828,357.1697,331.539;336.6904,17.70523,354.1525;9.803885,356.5498,344.0942;353.424,6.023303,303.8003;358.5134,354.8857,323.2119;0;0;0;0;1; 1; 1; 1; 1; 1;Position (0.1332223, -0.284472, -0.1238235), Orientation(-0.106311, -0.5103001, -0.5980911, 0.6087517);0,0,0;0,0,0;41.1405,295.6279,328.6009;28.03355,345.8397,339.8313;351.5812,7.963136,342.9799;9.016177,353.0341,354.5379;3.693708,353.475,335.5747;357.1025,0.8071018,326.7751;358.2906,2.971612,351.6289;358.9831,356.8938,333.3827;358.6484,0.5176461,327.8296;354.44,0.0917678,354.2446;354.2333,3.87931,333.5796;355.4691,0.5470188,327.1251;358.4325,356.7652,346.3307;336.6904,17.70523,354.1525;9.289009,355.0758,333.3602;354.2156,5.257449,328.4276;359.798,354.3792,353.7496;0;0;0;0;1; 1; 1; 1; 1; 
8.19;1;Position (-0.1756215, -0.2582982, -0.1570119), Orientation(0.8051587, 0.4771957, -0.3495193, -0.04289674);0,0,0;0,0,0;43.58165,293.2099,318.9857;28.4307,347.5431,340.6371;352.0686,7.775854,335.3701;9.429359,353.0123,359.4764;3.851113,358.0342,339.7339;357.1103,0.8015849,322.0814;358.3421,2.962897,349.1596;359.2675,3.901482,337.2087;358.6289,0.5329729,315.8887;353.4275,0.2909429,343.6197;354.362,7.482409,340.1531;355.0923,0.9239289,303.0467;357.3819,357.1702,331.5256;336.6904,17.70523,354.1525;9.781313,356.5277,343.6163;353.4193,6.030431,303.6107;358.5117,354.8869,323.1674;0;0;0;0;1; 1; 1; 1; 1; 1;Position (0.1330608, -0.2843051, -0.1217091), Orientation(-0.1159743, -0.5042174, -0.6020896, 0.6081142);0,0,0;0,0,0;41.42034,295.396,327.5786;28.08796,346.0671,339.9383;351.6376,7.945199,342.1166;8.990374,353.0367,354.2287;3.74983,354.2363,335.303;357.1027,0.807013,326.6949;358.2913,2.971512,351.5964;359.0118,357.5665,333.3481;358.6486,0.5174864,327.9739;354.4435,0.09141409,354.2808;354.2512,4.23518,333.4649;355.4785,0.5410051,327.6245;358.4658,356.7572,346.7802;336.6904,17.70523,354.1525;9.260324,354.4047,333.0814;354.235,5.245603,328.9316;359.8084,354.378,353.9781;0;0;0;0;1; 1; 1; 1; 1; 
8.2;1;Position (-0.1761793, -0.2595944, -0.1578126), Orientation(0.8052883, 0.4802541, -0.3452799, -0.04060185);0,0,0;0,0,0;43.54236,293.2569,319.1553;28.40594,347.4338,340.5851;352.065,7.777512,335.4275;9.418183,353.0124,359.343;3.831558,357.5865,339.4958;357.1104,0.8014778,321.9952;358.3376,2.963746,349.3752;359.2574,3.668636,337.1666;358.6292,0.5326825,316.0893;353.4397,0.2873282,343.7513;354.3611,7.43944,339.9894;355.094,0.9213716,303.1834;357.3806,357.171,331.5057;336.6904,17.70523,354.1525;9.765502,356.5124,343.2809;353.4159,6.035567,303.4744;358.5104,354.8879,323.1305;0;0;0;0;1; 1; 1; 1; 1; 1;Position (0.132717, -0.2839049, -0.1199051), Orientation(-0.1231771, -0.4995111, -0.605335, 0.6073598);0,0,0;0,0,0;41.61257,295.2307,326.866;28.12318,346.2152,340.0081;351.675,7.932798,341.5426;8.972186,353.0386,354.0107;3.78989,354.7849,335.1086;357.1028,0.8069315,326.6216;358.292,2.97141,351.5635;359.0322,358.0439,333.3188;358.6488,0.5173698,328.0796;354.4456,0.09119997,354.3028;354.2626,4.456489,333.3662;355.4856,0.5365017,328.003;358.4902,356.7516,347.1077;336.6904,17.70523,354.1525;9.238673,353.9151,332.8819;354.2488,5.237271,329.2906;359.8158,354.3773,354.1412;0;0;0;0;1; 1; 1; 1; 1; 
8.21;1;Position (-0.176397, -0.260104, -0.1581326), Orientation(0.8053152, 0.4814634, -0.3436384, -0.03966222);0,0,0;0,0,0;43.52776,293.2743,319.2181;28.39568,347.3886,340.5637;352.0636,7.778141,335.4494;9.413746,353.0125,359.29;3.823653,357.409,339.4048;357.1104,0.8014407,321.9654;358.3358,2.964084,349.4621;359.2534,3.576165,337.1505;358.6293,0.5325767,316.1627;353.4442,0.286001,343.7999;354.3607,7.421884,339.9233;355.0946,0.9204541,303.2325;357.3799,357.1713,331.4964;336.6904,17.70523,354.1525;9.759258,356.5064,343.1482;353.4145,6.03761,303.4202;358.5098,354.8883,323.1152;0;0;0;0;1; 1; 1; 1; 1; 1;Position (0.1325479, -0.2837058, -0.1191496), Orientation(-0.1260645, -0.497594, -0.606667, 0.6070117);0,0,0;0,0,0;41.6882,295.1643,326.5833;28.13654,346.2717,340.0347;351.6901,7.927664,341.31;8.964994,353.0394,353.9244;3.805822,355.0045,335.0313;357.1028,0.8068967,326.5904;358.2923,2.971365,351.5491;359.0404,358.2343,333.3067;358.6489,0.5173238,328.1215;354.4464,0.09112076,354.3109;354.2669,4.539096,333.325;355.4885,0.5346879,328.1566;358.4999,356.7493,347.239;336.6904,17.70523,354.1525;9.229814,353.7187,332.8027;354.2544,5.23398,329.4334;359.8188,354.377,354.2059;0;0;0;0;1; 1; 1; 1; 1; 
8.22;1;Position (-0.1771144, -0.2618151, -0.1592512), Orientation(0.8052328, 0.4855971, -0.3383572, -0.03619627);0,0,0;0,0,0;43.48362,293.3266,319.4076;28.35616,347.2154,340.4813;352.0593,7.780138,335.5189;9.398299,353.0127,359.1056;3.796124,356.8027,339.1031;357.1105,0.8013526,321.8947;358.3293,2.965278,349.7755;359.2395,3.255549,337.0987;358.6296,0.5322674,316.3776;353.4577,0.2820823,343.9442;354.3591,7.35598,339.684;355.0963,0.9179389,303.3672;357.377,357.1729,331.4521;336.6904,17.70523,354.1525;9.73797,356.4861,342.6954;353.4099,6.044773,303.2306;358.5077,354.89,323.0557;0;0;0;0;1; 1; 1; 1; 1; 1;Position (0.1316914, -0.2826824, -0.1162206), Orientation(-0.1362292, -0.4906437, -0.6116599, 0.6054606);0,0,0;0,0,0;41.94005,294.9373,325.6318;28.17961,346.4543,340.1208;351.7422,7.909468,340.507;8.940292,353.0421,353.6281;3.860948,355.769,334.7622;357.1031,0.806756,326.4641;358.2936,2.971175,351.4882;359.0684,358.8837,333.2591;358.6492,0.5171569,328.2736;354.4488,0.09088693,354.3351;354.2807,4.795181,333.1628;355.4991,0.5281805,328.7131;358.5344,356.7417,347.7017;336.6904,17.70523,354.1525;9.19776,353.0267,332.5265;354.2735,5.222721,329.9266;359.829,354.3759,354.4307;0;0;0;0;1; 1; 1; 1; 1; 
8.23;1;Position (-0.1761646, -0.2604969, -0.1549747), Orientation(0.8035601, 0.4886891, -0.3379374, -0.03567114);0,0,0;0,0,0;43.464,293.3498,319.4917;28.29527,346.9505,340.3557;352.0624,7.778697,335.4688;9.374606,353.0131,358.8227;3.840501,357.2051,338.4287;357.1122,0.7999963,320.8199;358.3389,2.9635,349.3123;359.2455,3.361642,336.84;358.6282,0.5335796,315.4716;353.4081,0.2967111,343.4118;354.3634,7.479845,339.9698;355.0899,0.9277312,302.8438;357.3484,357.1886,331.0251;336.6904,17.70523,354.1525;9.706258,356.4579,342.0181;353.4038,6.054058,302.9853;358.507,354.8905,323.0378;0;0;0;0;1; 1; 1; 1; 1; 1;Position (0.132433, -0.2845629, -0.1163379), Orientation(-0.1384816, -0.4847427, -0.6144074, 0.6069193);0,0,0;0,0,0;41.9503,294.9279,325.5927;28.02105,345.7877,339.8069;351.7645,7.901396,340.1607;8.943274,353.0418,353.6639;3.856704,355.7514,334.871;357.1025,0.807142,326.8115;358.2907,2.971597,351.6241;359.0806,359.178,333.3559;358.6494,0.5170128,328.4054;354.4454,0.09122127,354.3006;354.2887,5.020047,333.5538;355.5033,0.5256333,328.9334;358.5498,356.7383,347.9084;336.6904,17.70523,354.1525;9.224893,353.0962,333.1033;354.2924,5.211837,330.4105;359.8368,354.3752,354.6029;0;0;0;0;1; 1; 1; 1; 1; 
8.24;1;Position (-0.1755395, -0.2596628, -0.152134), Orientation(0.8023565, 0.4909709, -0.3375551, -0.03504446);0,0,0;0,0,0;43.45115,293.3649,319.5466;28.25242,346.7657,340.2681;352.0646,7.777699,335.4341;9.358187,353.0135,358.6266;3.868279,357.4362,337.9604;357.1134,0.7990461,320.0816;358.3448,2.962373,349.0287;359.249,3.42072,336.6636;358.6273,0.5344649,314.8683;353.3746,0.3068633,343.0519;354.3662,7.559533,340.1439;355.0857,0.9343371,302.4924;357.329,357.1994,330.733;336.6904,17.70523,354.1525;9.684716,356.4385,341.5568;353.3997,6.060508,302.8154;358.5064,354.8909,323.0225;0;0;0;0;1; 1; 1; 1; 1; 1;Position (0.1327764, -0.2856429, -0.1161393), Orientation(-0.1406042, -0.4802662, -0.6166888, 0.6076758);0,0,0;0,0,0;41.96679,294.9127,325.5298;27.91361,345.3447,339.5991;351.7803,7.895613,339.9162;8.944439,353.0417,353.6779;3.856871,355.7831,334.9322;357.1021,0.8073804,327.0276;358.289,2.971857,351.709;359.0893,359.3887,333.4183;358.6496,0.5169101,328.4996;354.4431,0.09145185,354.2769;354.2942,5.170759,333.7951;355.5066,0.5235981,329.1105;358.5616,356.7358,348.0658;336.6904,17.70523,354.1525;9.240473,353.0937,333.4623;354.3056,5.204365,330.7469;359.8424,354.3747,354.7246;0;0;0;0;1; 1; 1; 1; 1; 
8.25;1;Position (-0.1753035, -0.259353, -0.1510575), Orientation(0.8018857, 0.4918699, -0.3373943, -0.03476468);0,0,0;0,0,0;43.4463,293.3705,319.5673;28.23572,346.6939,340.2341;352.0654,7.777315,335.4207;9.351824,353.0136,358.5506;3.878634,357.5186,337.7775;357.1138,0.7986639,319.7878;358.347,2.961954,348.925;359.2503,3.441516,336.5957;358.627,0.5348076,314.6366;353.3618,0.3108315,342.9132;354.3673,7.589345,340.2076;355.084,0.9368811,302.3575;357.3215,357.2036,330.6201;336.6904,17.70523,354.1525;9.676402,356.4311,341.3785;353.3981,6.063007,302.7496;358.5062,354.8911,323.0162;0;0;0;0;1; 1; 1; 1; 1; 1;Position (0.1328838, -0.2860264, -0.1160219), Orientation(-0.1415033, -0.478483, -0.6176202, 0.6079277);0,0,0;0,0,0;41.97441,294.9056,325.5008;27.87205,345.175,339.5198;351.7864,7.893334,339.8206;8.944765,353.0416,353.6818;3.857348,355.8011,334.9538;357.102,0.8074679,327.1072;358.2883,2.971953,351.7403;359.0927,359.4713,333.4417;358.6496,0.5168702,328.5364;354.4422,0.09154072,354.2678;354.2964,5.227917,333.8836;355.508,0.5227758,329.1823;358.5663,356.7349,348.1286;336.6904,17.70523,354.1525;9.246002,353.0862,333.5941;354.3107,5.201481,330.8776;359.8445,354.3745,354.7719;0;0;0;0;1; 1; 1; 1; 1; 
8.26;1;Position (-0.1745065, -0.2583781, -0.1473656), Orientation(0.8000741, 0.4954405, -0.3366255, -0.03322118);0,0,0;0,0,0;43.43037,293.3892,319.6353;28.17728,346.4444,340.1162;352.0683,7.775985,335.3746;9.329954,353.0142,358.2895;3.911168,357.7562,337.157;357.1154,0.797339,318.7828;358.3537,2.960625,348.6026;359.2539,3.49727,336.366;358.6259,0.535942,313.8759;353.3188,0.3243262,342.4495;354.3709,7.685698,340.4034;355.0787,0.9453873,301.9077;357.2962,357.218,330.2376;336.6904,17.70523,354.1525;9.648356,356.4055,340.7759;353.3926,6.071646,302.5226;358.5053,354.8918,322.991;0;0;0;0;1; 1; 1; 1; 1; 1;Position (0.1329372, -0.2869848, -0.1150355), Orientation(-0.1459065, -0.4711836, -0.6217784, 0.6083494);0,0,0;0,0,0;42.01099,294.8717,325.3609;27.73371,344.6174,339.2597;351.8079,7.88529,339.4866;8.944863,353.0416,353.683;3.862318,355.9099,335.0128;357.1016,0.8077427,327.3583;358.2863,2.97225,351.8388;359.105,359.7642,333.5175;358.6498,0.5167286,328.667;354.4392,0.09184693,354.2365;354.3038,5.421199,334.161;355.5133,0.5196405,329.4574;358.5837,356.7312,348.362;336.6904,17.70523,354.1525;9.261995,353.0079,334.0128;354.3285,5.191618,331.329;359.8521,354.3738,354.9383;0;0;0;0;1; 1; 1; 1; 1; 
8.27;1;Position (-0.1739772, -0.2577527, -0.144896), Orientation(0.7987977, 0.4979682, -0.3360435, -0.03201346);0,0,0;0,0,0;43.41946,293.402,319.6819;28.13549,346.2672,340.0326;352.0703,7.775048,335.3421;9.314545,353.0147,358.1055;3.932903,357.9064,336.7227;357.1165,0.7963927,318.077;358.3581,2.959723,348.3886;359.2562,3.530429,336.2057;358.6252,0.5367308,313.3527;353.289,0.3339038,342.1275;354.3734,7.751071,340.5324;355.0751,0.9513118,301.5957;357.2785,357.2282,329.97;336.6904,17.70523,354.1525;9.628782,356.3876,340.3543;353.3887,6.077761,302.3623;358.5046,354.8923,322.9718;0;0;0;0;1; 1; 1; 1; 1; 1;Position (0.1328772, -0.2875173, -0.1141982), Orientation(-0.1492399, -0.46593, -0.6248199, 0.6084709);0,0,0;0,0,0;42.04066,294.8441,325.2472;27.63719,344.2344,339.0817;351.8232,7.879482,339.2488;8.944533,353.0416,353.679;3.867059,356.0042,335.0484;357.1013,0.8079253,327.5264;358.2849,2.972447,351.9045;359.1138,359.9742,333.5691;358.65,0.5166274,328.7606;354.4371,0.09206318,354.2146;354.3091,5.555859,334.3461;355.5172,0.5173225,329.6622;358.5965,356.7286,348.5333;336.6904,17.70523,354.1525;9.272103,352.9338,334.294;354.3411,5.184724,331.6484;359.8575,354.3733,355.0569;0;0;0;0;1; 1; 1; 1; 1; 
8.28;1;Position (-0.1733536, -0.2583746, -0.1428265), Orientation(0.7973775, 0.5009033, -0.3350966, -0.03154878);0,0,0;0,0,0;43.51062,293.2947,319.2918;28.15778,346.3615,340.0771;352.0789,7.771058,335.2044;9.294951,353.0154,357.8715;3.981674,358.6184,336.4951;357.1171,0.7958318,317.6635;358.364,2.9585,348.1049;359.2684,3.754619,335.7458;358.6242,0.537726,312.6987;353.2612,0.3430068,341.8266;354.3698,7.714419,340.7259;355.0797,0.9438833,301.9871;357.2867,357.2235,330.0945;336.6904,17.70523,354.1525;9.630201,356.4466,340.3608;353.3992,6.061262,302.7955;358.5168,354.8831,323.3052;0;0;0;0;1; 1; 1; 1; 1; 1;Position (0.1341118, -0.289922, -0.1157517), Orientation(-0.1463328, -0.4602539, -0.6277994, 0.610427);0,0,0;0,0,0;41.78637,295.0769,326.2143;27.51378,343.7515,338.8582;351.8044,7.8866,339.5407;8.958344,353.0401,353.8447;3.874613,356.0511,334.8876;357.101,0.808104,327.6913;358.2822,2.972821,352.0312;359.1137,-0.005300727,333.7604;358.6504,0.5163859,328.985;354.4355,0.09222331,354.1983;354.3242,5.889152,334.5621;355.514,0.519199,329.4963;358.5916,356.7296,348.4677;336.6904,17.70523,354.1525;9.30365,353.3787,334.7119;354.3453,5.182443,331.7548;359.8587,354.3732,355.0824;0;0;0;0;1; 1; 1; 1; 1; 
8.29;1;Position (-0.1727617, -0.2589633, -0.1408075), Orientation(0.7958997, 0.5039704, -0.3340834, -0.03075602);0,0,0;0,0,0;43.59302,293.1962,318.9366;28.16801,346.405,340.0976;352.0872,7.767185,335.0715;9.274464,353.0162,357.6268;4.027277,359.2589,336.216;357.1178,0.7951736,317.1821;358.3698,2.957255,347.8227;359.2796,3.95572,335.2983;358.6233,0.5387676,312.0217;353.2311,0.3530548,341.4999;354.3668,7.688239,340.915;355.083,0.9385352,302.2698;357.2908,357.2211,330.1571;336.6904,17.70523,354.1525;9.627142,356.4992,340.2719;353.4079,6.047824,303.1499;358.5277,354.875,323.603;0;0;0;0;1; 1; 1; 1; 1; 1;Position (0.1350799, -0.291972, -0.1168362), Orientation(-0.1445329, -0.4541467, -0.6311578, 0.6119648);0,0,0;0,0,0;41.57621,295.2624,327.0014;27.38497,343.2556,338.6295;351.7907,7.891754,339.7547;8.97023,353.0388,353.9872;3.883967,356.135,334.7424;357.1007,0.8082884,327.8624;358.2797,2.973178,352.1537;359.1157,0.05978214,333.9426;358.6508,0.5161462,329.2091;354.4337,0.0924063,354.1799;354.3396,6.221872,334.7802;355.5125,0.5201011,329.4168;358.5909,356.7298,348.4579;336.6904,17.70523,354.1525;9.331798,353.7195,335.1312;354.352,5.178887,331.9214;359.8608,354.373,355.129;0;0;0;0;1; 1; 1; 1; 1; 
8.3;1;Position (-0.1721942, -0.2595263, -0.1388263), Orientation(0.7943714, 0.5071412, -0.3330159, -0.02970565);0,0,0;0,0,0;43.66967,293.1034,318.6037;28.17056,346.4158,340.1027;352.0952,7.763378,334.9413;9.253263,353.0172,357.3736;4.071112,359.8579,335.9012;357.1186,0.7944407,316.6511;358.3756,2.955992,347.5429;359.2901,4.141176,334.8563;358.6223,0.5398525,311.3242;353.1993,0.3638752,341.1542;354.3642,7.669213,341.1008;355.0856,0.9344966,302.4839;357.2923,357.2202,330.1795;336.6904,17.70523,354.1525;9.621244,356.5472,340.1226;353.4153,6.036391,303.4525;358.5379,354.8676,323.8786;0;0;0;0;1; 1; 1; 1; 1; 1;Position (0.1358389, -0.2937447, -0.1175522), Orientation(-0.1435953, -0.4476899, -0.6348065, 0.613168);0,0,0;0,0,0;41.39493,295.4175,327.6721;27.25099,342.7479,338.3966;351.7802,7.895655,339.918;8.980844,353.0377,354.1145;3.894462,356.2424,334.6071;357.1004,0.8084759,328.0373;358.2772,2.973521,352.2733;359.1188,0.1541901,334.122;358.6512,0.5159073,329.434;354.4318,0.0926051,354.1599;354.3553,6.559348,334.9983;355.512,0.5203979,329.3907;358.5927,356.7294,348.4834;336.6904,17.70523,354.1525;9.358312,353.9961,335.5598;354.3601,5.17452,332.1273;359.8636,354.3728,355.1898;0;0;0;0;1; 1; 1; 1; 1; 
8.309999;1;Position (-0.1718125, -0.2599046, -0.137479), Orientation(0.7933047, 0.5093442, -0.3322658, -0.02890493);0,0,0;0,0,0;43.72215,293.0392,318.3745;28.16955,346.4115,340.1007;352.101,7.760671,334.8493;9.237805,353.0179,357.1889;4.10289,0.2915968,335.6634;357.1191,0.7938851,316.2521;358.3798,2.955053,347.3388;359.2973,4.268646,334.5427;358.6216,0.5406473,310.8178;353.1759,0.371973,340.8994;354.3625,7.658346,341.2331;355.0871,0.9320645,302.6132;357.2924,357.2202,330.1805;336.6904,17.70523,354.1525;9.61598,356.58,339.9934;353.4203,6.028902,303.6514;358.545,354.8624,324.0717;0;0;0;0;1; 1; 1; 1; 1; 1;Position (0.1362937, -0.2948734, -0.1179272), Orientation(-0.1432213, -0.4431487, -0.6373869, 0.6138769);0,0,0;0,0,0;41.2742,295.5184,328.1146;27.15272,342.3806,338.2287;351.7738,7.897995,340.0166;8.987994,353.037,354.2002;3.902395,356.3282,334.5139;357.1002,0.8086115,328.1643;358.2754,2.97376,352.3581;359.1216,0.2329429,334.2494;358.6515,0.5157368,329.5954;354.4303,0.09275425,354.1449;354.3668,6.802322,335.1552;355.512,0.5203929,329.3911;358.5951,356.7289,348.5146;336.6904,17.70523,354.1525;9.376781,354.1724,335.8705;354.3666,5.171101,332.2895;359.8658,354.3726,355.2388;0;0;0;0;1; 1; 1; 1; 1; 
8.32;1;Position (-0.1719579, -0.2619807, -0.1389242), Orientation(0.7919857, 0.5128682, -0.3305334, -0.02174342);0,0,0;0,0,0;43.80436,292.9374,318.0133;28.18258,346.4669,340.1268;352.1005,7.760876,334.8563;9.24389,353.0176,357.2616;4.1009,0.2802891,335.7094;357.1177,0.7952722,317.2538;358.3723,2.956704,347.6999;359.305,4.43074,334.4504;358.6216,0.540657,310.8117;353.1881,0.3677238,341.0327;354.3646,7.657647,340.9806;355.094,0.9214143,303.1811;357.3104,357.2099,330.453;336.6904,17.70523,354.1525;9.627311,356.4467,340.2973;353.4475,5.988569,304.7302;358.5687,354.8455,324.7073;0;0;0;0;1; 1; 0; 0; 1; 1;Position (0.1368398, -0.2952705, -0.1182068), Orientation(-0.1418395, -0.4402433, -0.6404626, 0.6130866);0,0,0;0,0,0;41.15961,295.6124,328.5316;26.94165,341.6057,337.8763;351.7532,7.905482,340.3352;9.007348,353.035,354.4321;3.920885,356.5042,334.2457;357.1001,0.8086459,328.1965;358.2733,2.974043,352.4591;359.1281,0.3646656,334.0894;358.6516,0.5157083,329.6225;354.4171,0.09413676,354.0079;354.3797,7.031018,335.0487;355.5117,0.5206023,329.3727;358.6016,356.7276,348.601;336.6904,17.70523,354.1525;9.386296,354.691,335.787;354.3637,5.17261,332.2178;359.8645,354.3727,355.211;0;0;0;0;1; 1; 1; 1; 1; 
8.33;1;Position (-0.1720511, -0.2639256, -0.1400778), Orientation(0.7905359, 0.5164624, -0.3287813, -0.01491865);0,0,0;0,0,0;43.88626,292.8345,317.6506;28.19058,346.5009,340.1429;352.1011,7.760615,334.8474;9.24578,353.0175,357.2842;4.105098,0.3378976,335.6782;357.1165,0.796289,318.0004;358.3662,2.958036,347.999;359.3131,4.596876,334.3058;358.6214,0.5408981,310.6588;353.1926,0.3661886,341.0811;354.3663,7.658438,340.7721;355.1001,0.912058,303.6831;357.3254,357.2015,330.6784;336.6904,17.70523,354.1525;9.634263,356.327,340.5;353.475,5.949415,305.7911;358.592,354.8291,325.3299;0;0;0;0;1; 1; 0; 0; 1; 1;Position (0.1372726, -0.2956213, -0.1182801), Orientation(-0.1410731, -0.4366632, -0.6438597, 0.6122651);0,0,0;0,0,0;41.03683,295.7112,328.9754;26.72493,340.8285,337.5255;351.7348,7.912082,340.6203;9.025738,353.0332,354.6524;3.939635,356.6904,333.9882;357.1,0.8087057,328.2529;358.271,2.974339,352.5666;359.1352,0.5134259,333.9628;358.6517,0.5156495,329.6782;354.4046,0.09547121,353.8786;354.3938,7.285092,334.9821;355.5117,0.5205349,329.3787;358.6089,356.7261,348.7;336.6904,17.70523,354.1525;9.396763,355.1628,335.7683;354.3635,5.172723,332.2124;359.8642,354.3727,355.2028;0;0;0;0;1; 1; 1; 1; 1; 
8.34;1;Position (-0.1721033, -0.2657678, -0.141002), Orientation(0.7889757, 0.5201078, -0.3270099, -0.008355264);0,0,0;0,0,0;43.96817,292.7302,317.285;28.1953,346.5211,340.1524;352.1023,7.76004,334.8278;9.244896,353.0176,357.2736;4.113475,0.4433217,335.5967;357.1157,0.7970783,318.5874;358.3609,2.959146,348.2542;359.3217,4.769238,334.1257;358.6211,0.541285,310.4143;353.192,0.3663782,341.0751;354.3679,7.660256,340.5941;355.106,0.9033139,304.1549;357.3383,357.1942,330.8728;336.6904,17.70523,354.1525;9.638484,356.2166,340.6396;353.5029,5.91117,306.8412;358.6153,354.8132,325.9461;0;0;0;0;1; 1; 0; 0; 1; 1;Position (0.1376163, -0.2959355, -0.1181908), Orientation(-0.1407861, -0.4325485, -0.647501, 0.611411);0,0,0;0,0,0;40.90527,295.8151,329.4473;26.50154,340.0458,337.1749;351.7176,7.91817,340.8869;9.043576,353.0316,354.8661;3.958589,356.8838,333.7369;357.0999,0.8087832,328.3258;358.2686,2.974643,352.6786;359.1427,0.673986,333.858;358.6518,0.5155706,329.7535;354.3925,0.09678046,353.7543;354.4088,7.557996,334.9435;355.5122,0.5202902,329.4001;358.617,356.7245,348.8076;336.6904,17.70523,354.1525;9.40773,355.6017,335.7929;354.365,5.171941,332.2495;359.8644,354.3727,355.2078;0;0;0;0;1; 1; 1; 1; 1; 
8.349999;1;Position (-0.1721282, -0.2669689, -0.141562), Orientation(0.7878992, 0.52253, -0.3258234, -0.004060525);0,0,0;0,0,0;44.02657,292.6549,317.0227;28.19746,346.5303,340.1568;352.1035,7.759501,334.8095;9.243212,353.0176,357.2535;4.121089,0.5377269,335.5197;357.1151,0.7975782,318.9626;358.3575,2.959849,348.4185;359.328,4.895299,333.9832;358.6208,0.5416161,310.2057;353.1898,0.367153,341.0507;354.369,7.661961,340.4791;355.1102,0.8971499,304.4891;357.3469,357.1895,331.0011;336.6904,17.70523,354.1525;9.640544,356.1411,340.7173;353.5228,5.884786,307.5742;358.6318,354.8021,326.3806;0;0;0;0;1; 1; 0; 0; 1; 1;Position (0.1378236, -0.2961358, -0.1180926), Orientation(-0.1407078, -0.4296852, -0.6499687, 0.6108295);0,0,0;0,0,0;40.80788,295.8905,329.7944;26.33894,339.4872,336.9263;351.7055,7.922385,341.0736;9.056375,353.0304,355.0193;3.972217,357.025,333.5597;357.0998,0.8088456,328.3845;358.2669,2.974865,352.7616;359.1482,0.7934846,333.7912;358.6519,0.5155061,329.815;354.3841,0.09771261,353.6673;354.4198,7.76046,334.9267;355.5126,0.5200493,329.4214;358.623,356.7233,348.8879;336.6904,17.70523,354.1525;9.415771,355.9066,335.8276;354.3667,5.17105,332.2919;359.8648,354.3727,355.2163;0;0;0;0;1; 1; 1; 1; 1; 
8.36;1;Position (-0.1742691, -0.2688994, -0.1438819), Orientation(0.7886335, 0.5236645, -0.3222278, 0.001384195);0,0,0;0,0,0;43.98153,292.713,317.2252;28.20037,346.5427,340.1626;352.1115,7.755649,334.6792;9.221786,353.0187,356.9975;4.099381,0.290464,335.7814;357.1137,0.798748,319.8523;358.3488,2.961602,348.8387;359.3331,5.050329,334.348;358.6214,0.5409518,310.6249;353.2332,0.3523586,341.5223;354.3748,7.749039,340.353;355.1174,0.8866707,305.0603;357.3626,357.1808,331.2371;336.6904,17.70523,354.1525;9.64512,356.2896,340.7538;353.5567,5.841447,308.794;358.6613,354.7828,327.1517;0;0;0;0;1; 1; 1; 0; 1; 1;Position (0.1380949, -0.2956666, -0.1179018), Orientation(-0.1410506, -0.4264197, -0.6519327, 0.6109457);0,0,0;0,0,0;40.85017,295.8579,329.6439;26.22343,339.0958,336.753;351.7071,7.921831,341.049;9.065134,353.0297,355.1241;3.985304,357.1914,333.4531;357.0999,0.8087962,328.3379;358.2673,2.974818,352.7438;359.1579,1.00241,333.6835;358.6518,0.5155543,329.769;354.3781,0.09838588,353.6053;354.4273,7.880204,334.8049;355.5107,0.521135,329.3259;358.6271,356.7225,348.9421;336.6904,17.70523,354.1525;9.409822,356.1448,335.5827;354.3647,5.172112,332.2414;359.8636,354.3728,355.1904;0;0;0;0;1; 1; 1; 1; 1; 
8.37;1;Position (-0.1762237, -0.2708069, -0.1459583), Orientation(0.7890442, 0.5251539, -0.3187072, 0.006943071);0,0,0;0,0,0;43.95464,292.7476,317.3457;28.20198,346.5496,340.1659;352.1195,7.751829,334.5506;9.200648,353.0199,356.7449;4.083489,0.1088462,335.9701;357.1124,0.7998726,320.7232;358.3406,2.963193,349.2343;359.3393,5.219246,334.6188;358.6217,0.5405412,310.8851;353.2682,0.3406756,341.9032;354.3801,7.829155,340.2311;355.125,0.8759959,305.6464;357.378,357.1724,331.4671;336.6904,17.70523,354.1525;9.648716,356.4149,340.7799;353.5921,5.798079,310.0359;358.6917,354.7635,327.938;0;0;0;0;1; 1; 1; 0; 1; 1;Position (0.1383176, -0.29524, -0.1175975), Orientation(-0.1416781, -0.4225618, -0.6543221, 0.6109266);0,0,0;0,0,0;40.86717,295.8447,329.5833;26.07682,338.6051,336.5367;351.7068,7.921916,341.0527;9.075435,353.0288,355.2475;4.000203,357.3765,333.3212;357.0999,0.808771,328.3141;358.2673,2.974822,352.7453;359.1679,1.222289,333.5829;358.6518,0.5155749,329.7494;354.3712,0.09916609,353.534;354.4368,8.038715,334.7032;355.5094,0.5219562,329.2539;358.6324,356.7215,349.0131;336.6904,17.70523,354.1525;9.406524,356.4229,335.3838;354.364,5.172442,332.2257;359.8629,354.3729,355.175;0;0;0;0;1; 1; 1; 1; 1; 
8.38;1;Position (-0.1775411, -0.2721612, -0.1473382), Orientation(0.7891913, 0.5263674, -0.3162183, 0.01096825);0,0,0;0,0,0;43.94209,292.7636,317.4017;28.20264,346.5524,340.1672;352.1252,7.749114,334.4595;9.185699,353.0208,356.5663;4.074232,0.002870812,336.079;357.1115,0.8006386,321.3258;358.3349,2.964251,349.5052;359.3441,5.345313,334.7797;358.6219,0.5403345,311.0166;353.2906,0.333383,342.1449;354.3838,7.883876,340.1456;355.1305,0.8683794,306.0671;357.3889,357.1664,331.6306;336.6904,17.70523,354.1525;9.650932,356.4963,340.7948;353.6179,5.767707,310.9192;358.7135,354.7499,328.5005;0;0;0;0;1; 1; 1; 0; 1; 1;Position (0.1384559, -0.2949533, -0.1173307), Orientation(-0.1422486, -0.4195437, -0.6562095, 0.6108499);0,0,0;0,0,0;40.86977,295.8427,329.5741;25.96001,338.2189,336.3673;351.7059,7.922225,341.0665;9.083405,353.0281,355.3429;4.011518,357.5157,333.2174;357.0999,0.8087624,328.3061;358.2671,2.974845,352.7539;359.1753,1.383402,333.5138;358.6518,0.5155788,329.7455;354.3659,0.09976855,353.4796;354.4444,8.166982,334.6385;355.5085,0.5224465,329.211;358.6367,356.7206,349.0702;336.6904,17.70523,354.1525;9.405143,356.6374,335.2603;354.3641,5.172406,332.2275;359.8626,354.3729,355.1679;0;0;0;0;1; 1; 1; 1; 1; 
8.389999;1;Position (-0.1780424, -0.2726869, -0.1478603), Orientation(0.789226, 0.5268592, -0.3152531, 0.01254151);0,0,0;0,0,0;43.9381,292.7687,317.4196;28.20284,346.5532,340.1676;352.1273,7.748054,334.4241;9.179876,353.0211,356.4966;4.070892,359.9645,336.1178;357.1111,0.8009347,321.5607;358.3328,2.964651,349.6098;359.3461,5.395288,334.8376;358.6219,0.5402654,311.0606;353.2988,0.3307108,342.2343;354.3852,7.90487,340.1125;355.1326,0.8653906,306.2329;357.3932,357.1641,331.6945;336.6904,17.70523,354.1525;9.651751,356.527,340.8002;353.6281,5.755849,311.2672;358.7222,354.7447,328.7219;0;0;0;0;1; 1; 1; 0; 1; 1;Position (0.1385068, -0.2948444, -0.1172199), Orientation(-0.1424874, -0.418332, -0.6569677, 0.6108101);0,0,0;0,0,0;40.8695,295.8429,329.575;25.91251,338.0631,336.2992;351.7055,7.922379,341.0733;9.086597,353.0279,355.3811;4.016022,357.571,333.1756;357.0999,0.8087605,328.3042;358.267,2.974857,352.7583;359.1782,1.446883,333.4873;358.6518,0.5155791,329.7454;354.3639,0.10001,353.4578;354.4474,8.21909,334.6145;355.5083,0.5226245,329.1955;358.6384,356.7203,349.0933;336.6904,17.70523,354.1525;9.404726,356.7235,335.2147;354.3642,5.172356,332.2299;359.8625,354.3729,355.1657;0;0;0;0;1; 1; 1; 1; 1; 
8.4;1;Position (-0.1786805, -0.2763372, -0.1498872), Orientation(0.7859467, 0.5317958, -0.3148592, 0.01856798);0,0,0;0,0,0;43.93086,292.7779,317.4519;28.1643,346.3892,340.0901;352.1302,7.74669,334.3784;9.13503,353.0241,355.9604;4.075641,0.0180038,336.0605;357.1114,0.8006645,321.3464;358.3368,2.963906,349.4164;359.3487,5.57364,335.8939;358.6228,0.5393172,311.6673;353.3187,0.3243315,342.4493;354.3969,8.165098,340.4183;355.1418,0.8529961,306.924;357.4178,357.1509,332.0605;336.6904,17.70523,354.1525;9.603792,357.0665,339.5346;353.6436,5.738285,311.7863;358.7607,354.7217,329.7008;0;0;0;0;1; 1; 1; 1; 1; 1;Position (0.1374334, -0.2949904, -0.1160094), Orientation(-0.1389142, -0.4154644, -0.6594411, 0.6109252);0,0,0;0,0,0;40.85681,295.8528,329.6202;25.85431,337.873,336.2162;351.7138,7.919502,340.9457;9.089202,353.0276,355.4122;4.038018,357.8542,332.9972;357.1001,0.8086408,328.1918;358.2681,2.974716,352.7057;359.1934,1.795246,333.4913;358.6515,0.5157744,329.5597;354.3567,0.1008372,353.384;354.4536,8.33049,334.6139;355.5057,0.5241602,329.0615;358.6295,356.722,348.9739;336.6904,17.70523,354.1525;9.400501,356.8492,335.0669;354.3698,5.169385,332.3712;359.8628,354.3729,355.1719;0;0;0;0;1; 1; 1; 1; 1; 
8.41;1;Position (-0.1793095, -0.2798295, -0.1517687), Orientation(0.7827511, 0.5366137, -0.3142304, 0.02460904);0,0,0;0,0,0;43.92876,292.7806,317.4613;28.129,346.2398,340.0197;352.1334,7.745102,334.3256;9.092715,353.0274,355.4543;4.080739,0.07704844,336.0019;357.1116,0.8005153,321.2283;358.3397,2.963354,349.2752;359.3519,5.757802,336.8932;358.6235,0.5385379,312.1705;353.3378,0.3183123,342.6547;354.4082,8.409867,340.6802;355.151,0.8409053,307.6042;357.4417,357.1384,332.4148;336.6904,17.70523,354.1525;9.560018,357.5687,338.3839;353.6622,5.717532,312.405;358.7985,354.7,330.6535;0;0;0;0;1; 1; 1; 1; 1; 1;Position (0.136435, -0.2951166, -0.1148047), Orientation(-0.1358677, -0.4121575, -0.6621382, 0.6109332);0,0,0;0,0,0;40.8362,295.8687,329.6936;25.76877,337.5955,336.0954;351.7205,7.917154,340.8422;9.09321,353.0273,355.4602;4.059926,358.1343,332.8123;357.1003,0.8085395,328.0968;358.2689,2.974609,352.6662;359.2083,2.134782,333.489;358.6512,0.5159417,329.4015;354.3492,0.1017213,353.306;354.461,8.46451,334.6131;355.5034,0.5255194,328.9433;358.6227,356.7234,348.8841;336.6904,17.70523,354.1525;9.397535,357.006,334.9362;354.3754,5.166492,332.5095;359.8632,354.3728,355.1804;0;0;0;0;1; 1; 1; 1; 1; 
8.42;1;Position (-0.1797576, -0.2822706, -0.1530578), Orientation(0.7804812, 0.5400182, -0.3136736, 0.02895599);0,0,0;0,0,0;43.9292,292.78,317.4593;28.10486,346.1381,339.9717;352.136,7.743877,334.2847;9.063228,353.0298,355.1013;4.084551,0.1218519,335.9592;357.1117,0.8004525,321.1786;358.3414,2.96303,349.1931;359.3544,5.892576,337.5878;358.6239,0.5380403,312.4937;353.3512,0.3141015,342.7997;354.4163,8.579803,340.8515;355.1576,0.832333,308.0903;357.4586,357.1295,332.6653;336.6904,17.70523,354.1525;9.530145,357.9153,337.6018;353.6769,5.701515,312.8867;358.8255,354.685,331.3306;0;0;0;0;1; 1; 1; 1; 1; 1;Position (0.13575, -0.2951987, -0.1139416), Orientation(-0.1339042, -0.4095901, -0.6641687, 0.6108894);0,0,0;0,0,0;40.81829,295.8825,329.7574;25.6971,337.3646,335.9951;351.7247,7.91567,340.777;9.096642,353.027,355.5013;4.075642,358.3348,332.677;357.1004,0.8084736,328.0352;358.2694,2.974547,352.6429;359.2189,2.375906,333.485;358.651,0.5160511,329.2984;354.3436,0.1023819,353.2483;354.4669,8.569579,334.6124;355.5019,0.5264302,328.8644;358.6187,356.7242,348.8306;336.6904,17.70523,354.1525;9.395862,357.131,334.8488;354.3793,5.164442,332.6079;359.8635,354.3728,355.1874;0;0;0;0;1; 1; 1; 1; 1; 
8.429999;1;Position (-0.1799406, -0.281758, -0.151589), Orientation(0.7800941, 0.5401798, -0.3141995, 0.03061857);0,0,0;0,0,0;43.90488,292.8109,317.5677;28.10123,346.1228,339.9645;352.1374,7.743194,334.262;9.058268,353.0303,355.042;4.084723,0.09461118,335.9;357.1117,0.8004122,321.1469;358.3418,2.962953,349.1739;359.3516,5.83813,337.65;358.624,0.5379996,312.5202;353.3508,0.3142337,342.7952;354.4207,8.661958,340.8683;355.1563,0.8339499,307.9983;357.4611,357.1283,332.7015;336.6904,17.70523,354.1525;9.526812,357.9663,337.5109;353.6786,5.699697,312.9416;358.8341,354.6804,331.543;0;0;0;0;1; 1; 1; 1; 1; 1;Position (0.1354648, -0.2953177, -0.1136905), Orientation(-0.1330425, -0.4098305, -0.6644596, 0.6105999);0,0,0;0,0,0;40.84219,295.8641,329.6723;25.71774,337.431,336.0239;351.7251,7.915522,340.7705;9.097518,353.027,355.5117;4.087426,358.4812,332.5662;357.1003,0.8085023,328.0619;358.2685,2.974663,352.6857;359.2213,2.418758,333.3959;358.651,0.5160608,329.2893;354.3421,0.1025555,353.2332;354.469,8.59978,334.5642;355.5021,0.5263529,328.8711;358.6198,356.7239,348.8448;336.6904,17.70523,354.1525;9.399648,357.1342,334.9339;354.3786,5.164817,332.5898;359.8619,354.3729,355.154;0;0;0;0;1; 1; 1; 1; 1; 
8.44;1;Position (-0.1805807, -0.2802922, -0.1469002), Orientation(0.7786244, 0.5410717, -0.3156759, 0.03652718);0,0,0;0,0,0;43.83285,292.9018,317.8874;28.08835,346.0687,339.9391;352.1422,7.740839,334.1839;9.040086,353.0319,354.8243;4.085738,0.01634204,335.7118;357.1118,0.8003269,321.0796;358.3429,2.962753,349.1236;359.3439,5.691771,337.8802;358.6241,0.5378575,312.6129;353.3506,0.314303,342.7928;354.4352,8.929306,340.9256;355.1537,0.8373326,307.8064;357.4703,357.1235,332.8376;336.6904,17.70523,354.1525;9.514331,358.1454,337.1749;353.6876,5.689958,313.2366;358.8634,354.6647,332.2701;0;0;0;0;1; 1; 1; 1; 1; 1;Position (0.1345075, -0.2957, -0.1127784), Orientation(-0.1303515, -0.4100028, -0.6658004, 0.6096033);0,0,0;0,0,0;40.90995,295.8114,329.4306;25.75194,337.5412,336.0717;351.7263,7.91512,340.7529;9.101224,353.0267,355.5561;4.124822,358.9463,332.2104;357.1002,0.8085911,328.1451;358.2656,2.97503,352.8236;359.2298,2.5807,333.1142;358.6509,0.5160925,329.2596;354.3368,0.1031964,353.1779;354.4766,8.715253,334.4141;355.5023,0.526172,328.8867;358.6233,356.7233,348.8913;336.6904,17.70523,354.1525;9.411555,357.1727,335.19;354.3769,5.165672,332.5488;359.8574,354.3733,355.0532;0;0;0;0;1; 1; 1; 1; 1; 
8.45;1;Position (-0.1810372, -0.2793897, -0.1437514), Orientation(0.7775145, 0.5418425, -0.316567, 0.04078269);0,0,0;0,0,0;43.78528,292.9611,318.0973;28.07873,346.0284,339.9201;352.1457,7.739117,334.1267;9.026224,353.0332,354.6582;4.086685,359.9664,335.5811;357.1119,0.8002878,321.0487;358.3435,2.962634,349.0937;359.339,5.602887,338.0565;358.6242,0.537753,312.6811;353.351,0.3141774,342.7971;354.4455,9.117892,340.9671;355.1525,0.838896,307.7178;357.4774,357.1199,332.9426;336.6904,17.70523,354.1525;9.504649,358.2785,336.9169;353.6957,5.681342,313.4988;358.8852,354.6534,332.8069;0;0;0;0;1; 1; 1; 1; 1; 1;Position (0.1338422, -0.2959579, -0.112113), Orientation(-0.1285718, -0.4098337, -0.6668955, 0.6088973);0,0,0;0,0,0;40.95298,295.7776,329.2766;25.76192,337.5734,336.0858;351.7269,7.914876,340.7422;9.104252,353.0265,355.5923;4.150872,359.2718,331.9604;357.1001,0.8086517,328.202;358.2636,2.975283,352.9198;359.2363,2.706139,332.9199;358.6509,0.5161148,329.2386;354.3327,0.1036877,353.1357;354.4825,8.805128,334.3115;355.5025,0.5260776,328.8949;358.6258,356.7228,348.9243;336.6904,17.70523,354.1525;9.419765,357.2134,335.361;354.3761,5.166105,332.528;359.8543,354.3736,354.9857;0;0;0;0;1; 1; 1; 1; 1; 
8.46;1;Position (-0.1812159, -0.279057, -0.142547), Orientation(0.7770696, 0.5421624, -0.3168919, 0.04245429);0,0,0;0,0,0;43.76728,292.9835,318.1766;28.07491,346.0124,339.9125;352.1471,7.738432,334.1041;9.020652,353.0337,354.5915;4.087091,359.9476,335.5302;357.1119,0.8002753,321.0389;358.3437,2.96259,349.0829;359.3372,5.570278,338.1275;358.6242,0.5377119,312.7081;353.3512,0.3141041,342.7996;354.4496,9.191834,340.9836;355.1521,0.8393948,307.6896;357.4803,357.1184,332.9849;336.6904,17.70523,354.1525;9.500723,358.3315,336.8128;353.6991,5.677737,313.6088;358.894,354.6489,333.0214;0;0;0;0;1; 1; 1; 1; 1; 1;Position (0.1335843, -0.2960567, -0.1118504), Orientation(-0.1278951, -0.4097254, -0.667344, 0.6086214);0,0,0;0,0,0;40.96915,295.7649,329.2186;25.76394,337.5799,336.0886;351.7272,7.914787,340.7383;9.105491,353.0264,355.6071;4.161044,359.3992,331.8624;357.1001,0.8086749,328.2239;358.2628,2.97538,352.9573;359.2389,2.75676,332.8443;358.6508,0.5161235,329.2304;354.3311,0.1038851,353.1188;354.4848,8.841434,334.2718;355.5026,0.5260457,328.8977;358.6267,356.7226,348.9373;336.6904,17.70523,354.1525;9.422928,357.2312,335.426;354.3758,5.166251,332.521;359.8531,354.3737,354.96;0;0;0;0;1; 1; 1; 1; 1; 
8.47;1;Position (-0.1810376, -0.2784219, -0.1393616), Orientation(0.7743453, 0.5429915, -0.3218544, 0.04426488);0,0,0;0,0,0;43.70919,293.0551,318.4312;28.0923,346.0853,339.9469;352.1508,7.736626,334.0445;8.983356,353.0374,354.1446;4.081243,359.7003,335.2427;357.1121,0.8001401,320.9328;358.3458,2.962193,348.984;359.3262,5.32099,338.0853;358.6245,0.5374019,312.911;353.3643,0.3100498,342.9404;354.4558,9.312838,341.0624;355.1547,0.8360342,307.88;357.5015,357.1077,333.2968;336.6904,17.70523,354.1525;9.514599,358.5735,337.0553;353.7011,5.675687,313.6715;358.9087,354.6414,333.3827;0;0;0;0;1; 1; 1; 1; 1; 1;Position (0.1340775, -0.296167, -0.1118162), Orientation(-0.1263849, -0.4086661, -0.6669727, 0.6100544);0,0,0;0,0,0;41.12481,295.6406,328.6578;25.87169,337.9297,336.2409;351.749,7.907019,340.4012;9.098546,353.0269,355.524;4.198844,359.3887,330.5013;357.1004,0.8084702,328.032;358.2639,2.975244,352.9049;359.241,2.78943,332.6985;358.6512,0.5159521,329.3916;354.3262,0.1044839,353.0679;354.486,8.879677,334.3935;355.5045,0.5248572,329.0009;358.6291,356.7221,348.9687;336.6904,17.70523,354.1525;9.437117,357.1986,335.7601;354.378,5.165124,332.5751;359.8509,354.3739,354.9125;0;0;0;0;1; 1; 1; 1; 1; 
8.48;1;Position (-0.1809087, -0.2779329, -0.1363701), Orientation(0.7716342, 0.5439956, -0.3263403, 0.04638242);0,0,0;0,0,0;43.6475,293.1304,318.7002;28.10925,346.1566,339.9804;352.155,7.734545,333.9759;8.94201,353.0419,353.6487;4.075147,359.4389,334.9331;357.1122,0.8000199,320.8385;358.3478,2.96179,348.8848;359.315,5.068652,338.0721;358.6248,0.5370642,313.1328;353.379,0.3055192,343.0991;354.4629,9.450008,341.15;355.158,0.8318075,308.1201;357.5252,357.0958,333.6444;336.6904,17.70523,354.1525;9.526151,358.8458,337.2418;353.7063,5.670228,313.8387;358.9283,354.6317,333.8606;0;0;0;0;1; 1; 1; 1; 1; 1;Position (0.1345052, -0.2962727, -0.1117108), Orientation(-0.1249951, -0.4073048, -0.6669008, 0.6113283);0,0,0;0,0,0;41.2895,295.5057,328.0587;25.96581,338.238,336.3757;351.7724,7.898506,340.0381;9.091847,353.0274,355.4439;4.240798,359.4116,329.0441;357.1008,0.8082482,327.825;358.265,2.975102,352.851;359.2444,2.848919,332.541;358.6515,0.5157696,329.5643;354.3204,0.1051943,353.008;354.4882,8.936503,334.5211;355.5066,0.5236357,329.1072;358.6317,356.7216,349.0043;336.6904,17.70523,354.1525;9.452765,357.1826,336.1201;354.3806,5.16378,332.6397;359.8487,354.3741,354.8631;0;0;0;0;1; 1; 1; 1; 1; 
8.49;1;Position (-0.1808375, -0.277645, -0.1343061), Orientation(0.76969, 0.5447893, -0.3293549, 0.04803447);0,0,0;0,0,0;43.60486,293.182,318.8853;28.12049,346.2039,340.0027;352.158,7.733067,333.9273;8.913342,353.0452,353.3047;4.07092,359.2591,334.7195;357.1123,0.7999437,320.7787;358.3492,2.961517,348.8181;359.3073,4.895218,338.0714;358.6251,0.536826,313.2899;353.3894,0.3023485,343.211;354.4679,9.546493,341.2115;355.1604,0.8287502,308.2944;357.5418,357.0876,333.8873;336.6904,17.70523,354.1525;9.533168,359.0367,337.3512;353.7106,5.665742,313.9764;358.9425,354.6248,334.2064;0;0;0;0;1; 1; 1; 1; 1; 1;Position (0.1347841, -0.2963467, -0.1116042), Orientation(-0.1240489, -0.4061972, -0.6669773, 0.612174);0,0,0;0,0,0;41.40253,295.4111,327.6442;26.02468,338.4322,336.4608;351.7886,7.892513,339.7863;9.08742,353.0278,355.3909;4.269583,359.4355,328.0501;357.101,0.8080932,327.6814;358.2658,2.975005,352.8143;359.247,2.89596,332.432;358.6517,0.5156438,329.6837;354.3163,0.1057046,352.9652;354.4899,8.979719,334.6085;355.5079,0.5228084,329.1794;358.6336,356.7213,349.0294;336.6904,17.70523,354.1525;9.463731,357.1765,336.3697;354.3824,5.16282,332.6859;359.8471,354.3742,354.8293;0;0;0;0;1; 1; 1; 1; 1; 
8.5;1;Position (-0.1808126, -0.2775411, -0.1335094), Orientation(0.7689275, 0.5451097, -0.3305061, 0.0487004);0,0,0;0,0,0;43.58829,293.2019,318.9571;28.12476,346.2219,340.0112;352.1592,7.732489,333.9084;8.902165,353.0466,353.1705;4.069272,359.1893,334.6365;357.1123,0.7999152,320.7563;358.3497,2.961413,348.7927;359.3043,4.827966,338.0724;358.6252,0.5367327,313.3514;353.3935,0.3011149,343.2547;354.4699,9.584133,341.2355;355.1613,0.8275448,308.3632;357.5483,357.0844,333.9821;336.6904,17.70523,354.1525;9.535741,359.1113,337.3909;353.7123,5.663907,314.0328;358.9482,354.6221,334.3431;0;0;0;0;1; 1; 1; 1; 1; 1;Position (0.1348893, -0.2963754, -0.1115581), Orientation(-0.1236855, -0.4057447, -0.6670253, 0.6124954);0,0,0;0,0,0;41.44647,295.3738,327.4822;26.04648,338.5044,336.4925;351.795,7.890157,339.6881;9.085741,353.0279,355.3708;4.280812,359.4458,327.6617;357.1011,0.8080329,327.6255;358.2661,2.974968,352.8002;359.2481,2.914992,332.3897;358.6518,0.5155952,329.73;354.3146,0.1059053,352.9485;354.4906,8.996998,334.642;355.5085,0.5224905,329.2072;358.6343,356.7211,349.0391;336.6904,17.70523,354.1525;9.468023,357.1749,336.4671;354.3831,5.162444,332.704;359.8466,354.3743,354.8164;0;0;0;0;1; 1; 1; 1; 1; 
8.51;1;Position (-0.1807346, -0.2776034, -0.1320737), Orientation(0.7669301, 0.5444994, -0.3358479, 0.05044728);0,0,0;0,0,0;43.54507,293.2537,319.1436;28.11648,346.187,339.9948;352.1565,7.733799,333.9514;8.860052,353.0519,352.6646;4.054035,358.8124,334.4036;357.1123,0.799909,320.7516;358.3465,2.962057,348.9504;359.2946,4.597306,337.9521;358.6248,0.5370527,313.1404;353.3929,0.3012842,343.2487;354.4763,9.68688,341.175;355.1571,0.8329545,308.0549;357.5524,357.0825,334.0409;336.6904,17.70523,354.1525;9.532949,359.3855,337.2651;353.7058,5.670743,313.8229;358.9538,354.6194,334.4801;0;0;0;0;1; 1; 1; 1; 1; 1;Position (0.1347058, -0.2963148, -0.110305), Orientation(-0.1226786, -0.4014105, -0.6674502, 0.6150851);0,0,0;0,0,0;41.9039,294.9704,325.7694;26.44346,339.8453,337.0854;351.8408,7.872674,338.9731;9.070714,353.0292,355.1909;4.413182,358.0841,319.5698;357.1078,0.8034185,323.583;358.2964,2.970757,351.3558;359.2598,3.14377,332.0634;358.6522,0.5153165,329.9966;354.3087,0.1066446,352.8872;354.5139,9.494875,335.2666;355.5102,0.5214948,329.2944;358.6392,356.7202,349.1037;336.6904,17.70523,354.1525;9.555144,357.554,338.2805;354.3983,5.154622,333.0837;359.8505,354.3739,354.9025;0;0;0;0;1; 1; 1; 1; 1; 
8.52;1;Position (-0.1806923, -0.277674, -0.1310459), Orientation(0.7654616, 0.5441758, -0.3394946, 0.05181377);0,0,0;0,0,0;43.51447,293.2901,319.2753;28.11106,346.1642,339.984;352.1549,7.734605,333.978;8.830523,353.0558,352.3095;4.043456,358.5505,334.2383;357.1123,0.7999051,320.7487;358.3442,2.962485,349.0567;359.2878,4.436043,337.8762;358.6247,0.5372618,313.0029;353.393,0.3012688,343.2493;354.4809,9.760979,341.1362;355.1545,0.8362777,307.8662;357.5559,357.0807,334.0926;336.6904,17.70523,354.1525;9.530987,359.5793,337.1796;353.7023,5.674385,313.7113;358.959,354.6169,334.6069;0;0;0;0;1; 1; 1; 1; 1; 1;Position (0.1345761, -0.2962762, -0.1094252), Orientation(-0.1219761, -0.3983168, -0.6678203, 0.616832);0,0,0;0,0,0;42.21605,294.6779,324.5705;26.69985,340.7397,337.4856;351.8726,7.860179,338.4761;9.060391,353.0301,355.0674;4.490135,357.2031,314.1912;357.1125,0.7998276,320.688;358.3177,2.96731,350.3315;359.2679,3.301971,331.8383;358.6526,0.5151238,330.1822;354.3045,0.107177,352.8434;354.53,9.836038,335.7062;355.5113,0.5208004,329.3553;358.6425,356.7195,349.1486;336.6904,17.70523,354.1525;9.616306,357.8169,339.5488;354.4088,5.149319,333.3439;359.8531,354.3737,354.9608;0;0;0;0;1; 1; 1; 1; 1; 
8.53;1;Position (-0.1806776, -0.2777058, -0.1306396), Orientation(0.7648743, 0.5440634, -0.3409099, 0.05237078);0,0,0;0,0,0;43.50237,293.3045,319.3273;28.10899,346.1554,339.9799;352.1543,7.734908,333.9879;8.81885,353.0574,352.1691;4.039278,358.4474,334.1728;357.1124,0.7999039,320.7475;358.3434,2.962651,349.0979;359.2852,4.372518,337.8476;358.6246,0.5373428,312.9497;353.3931,0.3012436,343.2502;354.4827,9.790413,341.1214;355.1536,0.8375121,307.7962;357.5574,357.08,334.1144;336.6904,17.70523,354.1525;9.530203,359.656,337.1463;353.7011,5.675657,313.6724;358.9613,354.6158,334.661;0;0;0;0;1; 1; 1; 1; 1; 1;Position (0.134525, -0.2962615, -0.10908), Orientation(-0.1217009, -0.3970945, -0.6679753, 0.6175062);0,0,0;0,0,0;42.33918,294.5585,324.0905;26.80328,341.1074,337.6511;351.8851,7.855156,338.2793;9.05634,353.0304,355.0189;4.518405,356.8723,312.0725;357.1143,0.798296,319.5067;358.3263,2.965813,349.919;359.2711,3.363999,331.75;358.6527,0.5150483,330.2552;354.3028,0.1073885,352.826;354.5363,9.969891,335.8813;355.5118,0.5205274,329.3793;358.6439,356.7193,349.1661;336.6904,17.70523,354.1525;9.640824,357.9205,340.0567;354.4129,5.147255,333.4458;359.8542,354.3736,354.9834;0;0;0;0;1; 1; 1; 1; 1; 
8.54;1;Position (-0.1806455, -0.2778535, -0.1292188), Orientation(0.7627747, 0.5438359, -0.3456138, 0.05448198);0,0,0;0,0,0;43.46061,293.3538,319.5062;28.10233,346.1275,339.9667;352.1524,7.735814,334.0177;8.778993,353.0631,351.6893;4.025246,358.099,333.9464;357.1124,0.7998993,320.7441;358.3406,2.963189,349.2333;359.276,4.156256,337.7589;358.6243,0.5376052,312.7777;353.3939,0.3009957,343.259;354.4891,9.893847,341.075;355.1507,0.8412594,307.5842;357.5634,357.0771,334.2014;336.6904,17.70523,354.1525;9.52752,359.9201,337.0351;353.6981,5.678845,313.575;358.9703,354.6116,334.8792;0;0;0;0;1; 1; 1; 1; 1; 1;Position (0.1343489, -0.2962171, -0.1078973), Orientation(-0.1207652, -0.3928358, -0.6686144, 0.6197181);0,0,0;0,0,0;42.73816,294.1548,322.5051;27.15163,342.3766,338.2268;351.927,7.838025,337.6206;9.042657,353.0317,354.855;4.583126,355.7266,305.7026;357.1199,0.7931889,315.7562;358.3547,2.96041,348.5511;359.2818,3.573882,331.4529;358.6531,0.5147936,330.5028;354.297,0.1081308,352.7655;354.5576,10.41517,336.471;355.5133,0.5195959,329.4613;358.6483,356.7184,349.2259;336.6904,17.70523,354.1525;9.721601,358.2692,341.7232;354.4266,5.140425,333.7857;359.8576,354.3733,355.0582;0;0;0;0;1; 1; 1; 1; 1; 
8.55;1;Position (-0.1806373, -0.2774986, -0.1285712), Orientation(0.7613648, 0.5434332, -0.3489572, 0.05685992);0,0,0;0,0,0;43.38197,293.4456,319.8414;28.09923,346.1144,339.9606;352.1543,7.734901,333.9877;8.730482,353.0706,351.1046;4.013247,357.8576,333.8657;357.1126,0.7996839,320.5757;358.3436,2.96261,349.0876;359.2744,4.157501,338.0864;358.6241,0.5378156,312.6403;353.3935,0.3011089,343.2549;354.4865,9.862633,341.168;355.149,0.8434529,307.4604;357.5623,357.0777,334.1852;336.6904,17.70523,354.1525;9.516894,0.08177229,336.7668;353.6956,5.681525,313.4932;358.9715,354.611,334.9085;0;0;0;0;1; 1; 1; 1; 1; 1;Position (0.1340629, -0.2963332, -0.1071389), Orientation(-0.1186199, -0.3929505, -0.6680712, 0.6206447);0,0,0;0,0,0;42.98309,293.8938,321.5079;27.32677,343.034,338.5277;351.9536,7.82685,337.2006;9.037918,353.0321,354.7983;4.492533,354.5922,306.743;357.1239,0.7890522,312.8948;358.3834,2.954249,347.1663;359.2937,3.794833,331.0086;358.6526,0.5150837,330.221;354.2553,0.113609,352.3336;354.5967,11.09326,336.6189;355.5052,0.5244468,329.0365;358.6323,356.7215,349.0118;336.6904,17.70523,354.1525;9.834829,359.6019,343.8661;354.4343,5.136648,333.9754;359.8575,354.3733,355.0569;0;0;0;0;1; 1; 1; 1; 1; 
8.559999;1;Position (-0.1806377, -0.2772771, -0.128078), Orientation(0.7603053, 0.5432105, -0.3513156, 0.05861328);0,0,0;0,0,0;43.32712,293.509,320.0738;28.09703,346.1052,339.9562;352.1555,7.734281,333.9673;8.696609,353.076,350.6958;4.004744,357.6834,333.8008;357.1128,0.7995386,320.4628;358.3456,2.96223,348.9932;359.2729,4.150695,338.3057;358.624,0.5379617,312.5449;353.3934,0.3011273,343.2543;354.4851,9.847109,341.2307;355.1479,0.8449503,307.3759;357.5621,357.0778,334.1822;336.6904,17.70523,354.1525;9.509746,0.2021026,336.5851;353.694,5.683142,313.4439;358.9734,354.6102,334.9526;0;0;0;0;1; 1; 1; 1; 1; 1;Position (0.1338631, -0.2964127, -0.1065886), Orientation(-0.1171426, -0.3928598, -0.6677681, 0.6213086);0,0,0;0,0,0;43.15782,293.7011,320.7847;27.45267,343.5153,338.7491;351.9728,7.818633,336.8964;9.03434,353.0324,354.7555;4.442217,353.7727,306.7;357.1266,0.7860733,310.9142;358.4031,2.949582,346.2082;359.3022,3.950577,330.7012;358.6523,0.515269,330.0423;354.2269,0.1175186,352.0395;354.624,11.55965,336.7374;355.4998,0.5276924,328.7552;358.6218,356.7235,348.8714;336.6904,17.70523,354.1525;9.909304,0.5107669,345.3281;354.4399,5.133906,334.114;359.8575,354.3733,355.0576;1;0;0;0;1; 1; 1; 1; 1; 
8.57;1;Position (-0.1806388, -0.277195, -0.1278807), Orientation(0.7598827, 0.5431321, -0.3522334, 0.0593069);0,0,0;0,0,0;43.30571,293.5336,320.1642;28.09617,346.1016,339.9545;352.156,7.734043,333.9594;8.683362,353.0783,350.5358;4.001406,357.6147,333.7743;357.1129,0.7994833,320.4199;358.3463,2.962086,348.9576;359.2724,4.146988,338.39;358.624,0.5380185,312.5079;353.3934,0.3011257,343.2543;354.4846,9.841949,341.2548;355.1474,0.845525,307.3436;357.5621,357.0778,334.1822;336.6904,17.70523,354.1525;9.50699,0.2499863,336.515;353.6935,5.683736,313.4258;358.9742,354.6098,334.9728;0;0;0;0;1; 1; 1; 1; 1; 1;Position (0.1337855, -0.2964434, -0.1063722), Orientation(-0.1165726, -0.3927996, -0.6676615, 0.6215684);0,0,0;0,0,0;43.22664,293.6237,320.4969;27.50235,343.7072,338.8377;351.9804,7.81535,336.776;9.032915,353.0326,354.7384;4.423851,353.4458,306.5898;357.1276,0.7848763,310.1351;358.4108,2.947659,345.832;359.3054,4.011465,330.5814;358.6522,0.5153381,329.9759;354.2159,0.1190723,351.9256;354.6347,11.74141,336.7856;355.4978,0.528964,328.6457;358.6178,356.7243,348.8184;336.6904,17.70523,354.1525;9.937814,0.8662531,345.8999;354.4421,5.132824,334.1688;359.8576,354.3733,355.0582;1;0;0;0;1; 1; 1; 1; 1; 
8.58;1;Position (-0.1806575, -0.2769415, -0.1270248), Orientation(0.7580846, 0.5429724, -0.3558367, 0.06220263);0,0,0;0,0,0;43.232,293.6176,320.4744;28.09315,346.0889,339.9486;352.1577,7.733242,333.933;8.63761,353.0862,349.9827;3.989714,357.3701,333.6725;357.1131,0.7992964,320.2751;358.3487,2.961617,348.8426;359.2699,4.124865,338.669;358.6238,0.5382141,312.3806;353.3937,0.3010463,343.2572;354.4833,9.83145,341.3353;355.1459,0.8474849,307.2332;357.5627,357.0775,334.1921;336.6904,17.70523,354.1525;9.497761,0.4246787,336.2789;353.6918,5.685518,313.3716;358.9781,354.6079,335.0685;0;0;0;0;1; 1; 1; 1; 1; 1;Position (0.1334868, -0.2965578, -0.1054908), Orientation(-0.1144205, -0.3921697, -0.6674309, 0.6226131);0,0,0;0,0,0;43.46777,293.3453,319.4755;27.67745,344.3935,339.1556;352.0074,7.803537,336.3472;9.027637,353.0331,354.6752;4.371765,352.3133,305.5895;357.131,0.7807046,307.4859;358.4368,2.940776,344.5583;359.3169,4.224041,330.1717;358.6518,0.5155587,329.7649;354.1791,0.1244478,351.5433;354.6712,12.35772,336.9708;355.4908,0.5332856,328.2758;358.6048,356.7269,348.6441;336.6904,17.70523,354.1525;10.03043,2.043145,347.809;354.4501,5.128955,334.3658;359.8578,354.3733,355.062;1;0;0;0;1; 1; 1; 1; 1; 
8.59;1;Position (-0.1806717, -0.2767844, -0.126453), Orientation(0.7568831, 0.5428815, -0.3581855, 0.06411578);0,0,0;0,0,0;43.17983,293.6765,320.6928;28.09101,346.0799,339.9443;352.1588,7.732681,333.9147;8.605226,353.0921,349.5906;3.981351,357.1943,333.5964;357.1133,0.7991651,320.1733;358.3503,2.961296,348.7643;359.2681,4.105518,338.8616;358.6237,0.5383522,312.2909;353.394,0.30096,343.2602;354.4826,9.826899,341.3911;355.1449,0.8488616,307.1559;357.5635,357.0771,334.203;336.6904,17.70523,354.1525;9.491303,0.5519612,336.1141;353.6907,5.68668,313.3362;358.9814,354.6064,335.1457;0;0;0;0;1; 1; 1; 1; 1; 1;Position (0.1332918, -0.296632, -0.104909), Orientation(-0.1130263, -0.3917049, -0.6673032, 0.6232967);0,0,0;0,0,0;43.63858,293.1412,318.739;27.80152,344.8894,339.3864;352.0268,7.794911,336.0387;9.023766,353.0334,354.6288;4.337924,351.5121,304.6799;357.1332,0.7776757,305.6201;358.455,2.935607,343.6658;359.325,4.375393,329.8834;358.6516,0.5157098,329.621;354.1535,0.128334,351.2773;354.6971,12.78964,337.1093;355.4859,0.536324,328.018;358.5958,356.7288,348.5237;336.6904,17.70523,354.1525;10.09259,2.856709,349.1373;354.4559,5.126175,334.5083;359.8579,354.3733,355.0654;1;0;0;0;1; 1; 1; 1; 1; 
8.599999;1;Position (-0.180625, -0.2762692, -0.1262602), Orientation(0.7560006, 0.5431139, -0.3592098, 0.06677414);0,0,0;0,0,0;43.25954,293.5864,320.3588;27.95827,345.528,339.685;352.1514,7.736347,334.0353;8.609253,353.0914,349.6394;3.970505,357.055,333.6818;357.113,0.7993525,320.3184;358.3517,2.961022,348.6979;359.2709,4.166259,338.8406;358.6235,0.5384922,312.2001;353.4002,0.2990923,343.3267;354.4796,9.75153,341.2309;355.1465,0.8467116,307.2768;357.5782,357.07,334.4177;336.6904,17.70523,354.1525;9.457021,0.5190761,335.3386;353.6924,5.684824,313.3927;358.9905,354.6022,335.3666;0;0;0;0;1; 1; 1; 1; 1; 1;Position (0.1330471, -0.2968184, -0.1051862), Orientation(-0.110072, -0.3918532, -0.6658344, 0.6252998);0,0,0;0,0,0;43.44391,293.3734,319.5775;27.78364,344.8174,339.3528;352.0233,7.796481,336.0946;9.033108,353.0325,354.7407;4.276412,351.4389,307.5161;357.132,0.7792194,306.5655;358.4542,2.93585,343.7067;359.3041,3.900865,329.8448;358.6506,0.5162675,329.0954;354.1087,0.1354393,350.8106;354.7055,12.90277,336.9547;355.4738,0.5440198,327.3733;358.5752,356.733,348.2482;336.6904,17.70523,354.1525;10.12628,4.185145,349.9583;354.455,5.126587,334.4872;359.8557,354.3735,355.0178;1;0;0;0;1; 1; 1; 1; 1; 
8.61;1;Position (-0.1805893, -0.2758056, -0.1259894), Orientation(0.7549998, 0.5433667, -0.3604167, 0.06948268);0,0,0;0,0,0;43.32075,293.5164,320.1007;27.83294,345.0163,339.4456;352.1447,7.739595,334.1427;8.6043,353.0923,349.5794;3.959009,356.8913,333.738;357.1128,0.799508,320.4391;358.3531,2.960728,348.6274;359.2729,4.213636,338.8527;358.6234,0.538643,312.1023;353.406,0.297328,343.3897;354.4769,9.685808,341.0922;355.1479,0.8449643,307.3752;357.5921,357.0634,334.6192;336.6904,17.70523,354.1525;9.425401,0.5211371,334.6145;353.6939,5.683312,313.4388;358.9998,354.598,335.589;0;0;0;0;1; 1; 1; 1; 1; 1;Position (0.1328034, -0.2969952, -0.1053634), Orientation(-0.1072498, -0.3917818, -0.6645442, 0.6272045);0,0,0;0,0,0;43.33191,293.5035,320.0536;27.79821,344.8761,339.3802;352.025,7.795685,336.0662;9.040847,353.0318,354.8334;4.225609,351.1802,309.1382;357.1321,0.7791892,306.5468;358.4584,2.93459,343.4956;359.2875,3.516934,329.7506;358.6497,0.5168131,328.589;354.064,0.1429045,350.3443;354.7187,13.09803,336.8527;355.4619,0.551685,326.7422;358.5548,356.7373,347.9756;336.6904,17.70523,354.1525;10.16653,5.510332,351.0346;354.4556,5.126314,334.5012;359.8538,354.3736,354.9754;1;0;0;0;1; 1; 1; 1; 1; 
8.62;1;Position (-0.1805619, -0.2754035, -0.1257), Orientation(0.7540148, 0.5436074, -0.3616186, 0.07200362);0,0,0;0,0,0;43.36986,293.4597,319.8928;27.71202,344.5309,339.2194;352.1387,7.742562,334.241;8.593761,353.0943,349.4517;3.947028,356.7109,333.775;357.1127,0.7996414,320.5428;358.3547,2.960421,348.5539;359.2745,4.251943,338.8867;358.6232,0.5388021,311.9994;353.4117,0.2956343,343.4504;354.4745,9.626612,340.9673;355.149,0.8434931,307.4581;357.6054,357.0571,334.8123;336.6904,17.70523,354.1525;9.395402,0.5462823,333.9203;353.6951,5.682023,313.478;359.0092,354.5938,335.813;0;0;0;0;1; 1; 1; 1; 1; 1;Position (0.1325789, -0.2971536, -0.1054765), Orientation(-0.1047145, -0.3916047, -0.663442, 0.6289082);0,0,0;0,0,0;43.26918,293.5754,320.3182;27.83344,345.0184,339.4466;352.0302,7.793371,335.984;9.047494,353.0312,354.913;4.179804,350.8069,310.1345;357.1327,0.7783384,306.0245;358.4658,2.932386,343.1328;359.2738,3.191963,329.6199;358.6488,0.5173542,328.0938;354.019,0.1507763,349.8757;354.735,13.34639,336.7852;355.4503,0.5594094,326.1168;358.5346,356.7416,347.7042;336.6904,17.70523,354.1525;10.20865,6.845433,352.268;354.4571,5.12559,334.5384;359.8521,354.3738,354.9368;1;0;0;0;1; 1; 1; 1; 1; 
8.63;1;Position (-0.1805459, -0.275134, -0.1254689), Orientation(0.7532745, 0.5437835, -0.3625309, 0.07381302);0,0,0;0,0,0;43.40068,293.4239,319.7619;27.62722,344.1951,339.0635;352.1345,7.744581,334.3081;8.584172,353.0961,349.3355;3.938238,356.5751,333.7942;357.1126,0.7997282,320.6104;358.3558,2.960194,348.4999;359.2754,4.275958,338.9194;358.6231,0.5389194,311.9236;353.4156,0.2944481,343.493;354.473,9.586594,340.8825;355.1497,0.8425467,307.5115;357.6147,357.0527,334.9474;336.6904,17.70523,354.1525;9.37464,0.5730255,333.4361;353.6959,5.681184,313.5036;359.0159,354.5907,335.9743;0;0;0;0;1; 1; 1; 1; 1; 1;Position (0.1324194, -0.2972631, -0.1055249), Orientation(-0.1029527, -0.3914081, -0.6627138, 0.630088);0,0,0;0,0,0;43.2412,293.6072,320.4359;27.86628,345.1516,339.5088;352.0351,7.791143,335.9051;9.051844,353.0308,354.9651;4.148057,350.4981,310.6604;357.1333,0.7774575,305.4875;358.4721,2.930441,342.8186;359.2649,2.97945,329.5125;358.6482,0.5177398,327.7451;353.9869,0.1566484,349.5396;354.748,13.54418,336.7497;355.4422,0.5649654,325.6732;358.5201,356.7448,347.5104;336.6904,17.70523,354.1525;10.238,7.801465,353.2055;354.4585,5.124901,334.5739;359.8509,354.3739,354.9106;1;0;0;0;1; 1; 1; 1; 1; 
8.639999;1;Position (-0.1808997, -0.2749476, -0.1249795), Orientation(0.7529808, 0.5442035, -0.362014, 0.07621358);0,0,0;0,0,0;43.42695,293.3932,319.6499;27.5701,343.9709,338.9596;352.1407,7.741568,334.208;8.585626,353.0958,349.3531;3.928144,356.2587,333.4762;357.1122,0.7999884,320.8137;358.3561,2.960137,348.4865;359.2761,4.326887,339.212;358.6231,0.5389671,311.8929;353.4153,0.2945556,343.4892;354.4671,9.529696,341.1918;355.1544,0.8363962,307.8595;357.6293,357.0459,335.158;336.6904,17.70523,354.1525;9.368251,0.3811216,333.3174;353.7082,5.668254,313.8993;359.0341,354.5827,336.41;0;0;0;0;1; 1; 1; 1; 1; 1;Position (0.1317336, -0.2975976, -0.1053363), Orientation(-0.09610446, -0.3930685, -0.6591839, 0.6338279);0,0,0;0,0,0;43.10187,293.7634,321.0174;27.97929,345.6147,339.7257;352.0386,7.789573,335.8497;9.053466,353.0307,354.9845;4.135247,350.7389,311.9544;357.1324,0.7788038,306.3098;358.4684,2.931605,343.006;359.2418,2.490173,329.8463;358.6468,0.5186756,326.9124;353.9472,0.1641695,349.1242;354.7374,13.38451,336.7989;355.4216,0.5793224,324.5494;358.479,356.7542,346.9575;336.6904,17.70523,354.1525;10.21152,8.825778,353.0572;354.4424,5.132652,334.1776;359.8408,354.3748,354.6899;1;0;0;0;1; 1; 1; 1; 1; 
8.65;1;Position (-0.1812285, -0.2747603, -0.1244498), Orientation(0.7525195, 0.5446267, -0.3617947, 0.0787461);0,0,0;0,0,0;43.45187,293.364,319.5435;27.50453,343.7157,338.8416;352.1459,7.739042,334.1243;8.581978,353.0965,349.3089;3.916941,355.9382,333.1841;357.1119,0.8002308,321.004;358.3566,2.960038,348.463;359.2767,4.373614,339.4929;358.623,0.5390372,311.8476;353.4156,0.2944598,343.4926;354.4615,9.47311,341.4697;355.1588,0.8307493,308.1804;357.6441,357.0391,335.3716;336.6904,17.70523,354.1525;9.357953,0.2269832,333.104;353.7193,5.656664,314.2561;359.0518,354.575,336.8321;0;0;0;0;1; 1; 1; 1; 1; 1;Position (0.1310775, -0.2979177, -0.1051167), Orientation(-0.08960559, -0.3944111, -0.6558856, 0.6373578);0,0,0;0,0,0;42.993,293.883,321.4672;28.09419,346.0933,339.9506;352.0443,7.786974,335.7581;9.055245,353.0305,355.0058;4.116511,350.8145,313.004;357.132,0.7792546,306.587;358.4683,2.931619,343.0082;359.2197,2.01526,330.0974;358.6454,0.5196125,326.0971;353.9047,0.1725577,348.6786;354.7329,13.32068,336.8495;355.4019,0.5937048,323.4538;358.4388,356.7636,346.4164;336.6904,17.70523,354.1525;10.19826,9.976227,353.3205;354.429,5.13924,333.8451;359.8314,354.3757,354.483;1;0;0;0;1; 1; 1; 1; 1; 
8.66;1;Position (-0.1815378, -0.2745721, -0.1238878), Orientation(0.751925, 0.5450515, -0.361807, 0.08138385);0,0,0;0,0,0;43.47583,293.3358,319.4411;27.43259,343.438,338.7136;352.1503,7.736853,334.052;8.575081,353.0978,349.2253;3.904852,355.6126,332.9079;357.1117,0.8004621,321.1862;358.3572,2.959908,348.4323;359.2773,4.417456,339.7676;358.623,0.5391231,311.7923;353.4164,0.2942242,343.5011;354.4562,9.416771,341.727;355.163,0.8254187,308.4847;357.6591,357.0322,335.5885;336.6904,17.70523,354.1525;9.34517,0.09804279,332.8296;353.7298,5.645909,314.5892;359.0694,354.5676,337.2487;0;0;0;0;1; 1; 1; 1; 1; 1;Position (0.1304443, -0.2982269, -0.1048726), Orientation(-0.08337438, -0.3955041, -0.6527628, 0.6407231);0,0,0;0,0,0;42.9037,293.9796,321.8333;28.21069,346.5868,340.1835;352.0515,7.783683,335.6427;9.057141,353.0304,355.0285;4.094306,350.787,313.8929;357.132,0.7792208,306.5663;358.4705,2.930936,342.898;359.1979,1.539939,330.295;358.644,0.5205676,325.2833;353.8599,0.1817585,348.209;354.7322,13.31752,336.9017;355.3825,0.6084145,322.3618;358.3989,356.7735,345.8778;336.6904,17.70523,354.1525;10.18966,11.21865,353.8232;354.4174,5.145028,333.5562;359.8223,354.3766,354.2847;1;0;0;0;1; 1; 1; 1; 1; 
