57.19;Position (-0.05124651, 0.02539156, -0.2631388), Orientation(0.9401256, 0.03378818, -0.3391224, 0.004276754);1.105962;0, 0, 0, 1;0, 0, 0, 1;0.3753869, 0.4245841, -0.007778856, 0.8238644;0.2602303, 0.02433088, 0.125678, 0.9570231;-0.08270362, -0.0769617, -0.08406225, 0.9900357;0.08350578, 0.0650157, -0.05827406, 0.9926752;0.03068309, -0.01885559, 0.04328144, 0.9984136;-0.02585241, -0.007116059, 0.003292941, 0.999635;-0.016056, -0.02714873, -0.07203398, 0.9969034;-0.009066326, -0.05146559, 0.05183575, 0.9972874;-0.01122824, -0.004378878, -0.001978263, 0.9999254;-0.03431955, -0.004611846, -0.09300701, 0.9950631;-0.05315936, -0.1231034, 0.04981349, 0.9897162;-0.03363252, -0.002789855, 0.005676027, 0.9994143;-0.003477462, 0.02917947, -0.02502854, 0.9992548;-0.207036, -0.1403428, 0.0183118, 0.9680417;0.09111304, 0.004071355, 0.02812922, 0.9954349;-0.03761665, -0.0429377, -0.01328605, 0.9982809;0.0006447434, 0.04917068, -0.02401882, 0.9985014;0, 0, 0, 1;0, 0, 0, 1;0, 0, 0, 1;0, 0, 0, 1;0, 0, 0, 1;True;False;0;;Position (-0.05124651, 0.02539156, -0.2631388), Orientation(-0.004276754, 0.3391224, 0.03378818, 0.9401256);1.105962;0, 0, 0, 1;0, 0, 0, 1;0.3753869, 0.4245841, -0.007778856, 0.8238644;0.2602303, 0.02433088, 0.125678, 0.9570231;-0.08270377, -0.0769617, -0.08406223, 0.9900357;0.08350593, 0.06501573, -0.05827406, 0.9926752;0.03068309, -0.01885559, 0.04328144, 0.9984136;-0.02585241, -0.007116061, 0.003292944, 0.999635;-0.016056, -0.02714872, -0.072034, 0.9969034;-0.009066326, -0.05146559, 0.05183575, 0.9972874;-0.01122823, -0.004378874, -0.001978267, 0.9999254;-0.03431955, -0.004611839, -0.09300701, 0.9950631;-0.05315936, -0.1231034, 0.04981349, 0.9897162;-0.03363252, -0.00278984, 0.00567602, 0.9994143;-0.003477462, 0.02917945, -0.02502854, 0.9992548;-0.207036, -0.1403428, 0.0183118, 0.9680417;0.09111304, 0.00407137, 0.02812923, 0.9954349;-0.03761665, -0.04293772, -0.01328605, 0.9982809;0.0006447434, 0.04917067, -0.02401883, 0.9985014;0, 0, 0, 1;0, 0, 0, 1;0, 0, 0, 1;0, 0, 0, 1;0, 0, 0, 1;True;False;0;
57.2;Position (-0.05168866, 0.02618864, -0.2607557), Orientation(0.9403723, 0.03465639, -0.3383259, 0.005868839);1.105962;0, 0, 0, 1;0, 0, 0, 1;0.3753869, 0.4245841, -0.007778856, 0.8238644;0.2602303, 0.02433088, 0.125678, 0.9570231;-0.08270362, -0.0769617, -0.08406225, 0.9900357;0.08350578, 0.0650157, -0.05827406, 0.9926752;0.03068309, -0.01885559, 0.04328144, 0.9984136;-0.02585241, -0.007116059, 0.003292941, 0.999635;-0.016056, -0.02714873, -0.07203398, 0.9969034;-0.009066326, -0.05146559, 0.05183575, 0.9972874;-0.01122824, -0.004378878, -0.001978263, 0.9999254;-0.03431955, -0.004611846, -0.09300701, 0.9950631;-0.05315936, -0.1231034, 0.04981349, 0.9897162;-0.03363252, -0.002789855, 0.005676027, 0.9994143;-0.003477462, 0.02917947, -0.02502854, 0.9992548;-0.207036, -0.1403428, 0.0183118, 0.9680417;0.09111304, 0.004071355, 0.02812922, 0.9954349;-0.03761665, -0.0429377, -0.01328605, 0.9982809;0.0006447434, 0.04917068, -0.02401882, 0.9985014;0, 0, 0, 1;0, 0, 0, 1;0, 0, 0, 1;0, 0, 0, 1;0, 0, 0, 1;True;False;0;;Position (-0.05168866, 0.02618864, -0.2607557), Orientation(-0.005868839, 0.3383259, 0.03465639, 0.9403723);1.105962;0, 0, 0, 1;0, 0, 0, 1;0.3753869, 0.4245841, -0.007778856, 0.8238644;0.2602303, 0.02433088, 0.125678, 0.9570231;-0.08270377, -0.0769617, -0.08406223, 0.9900357;0.08350593, 0.06501573, -0.05827406, 0.9926752;0.03068309, -0.01885559, 0.04328144, 0.9984136;-0.02585241, -0.007116061, 0.003292944, 0.999635;-0.016056, -0.02714872, -0.072034, 0.9969034;-0.009066326, -0.05146559, 0.05183575, 0.9972874;-0.01122823, -0.004378874, -0.001978267, 0.9999254;-0.03431955, -0.004611839, -0.09300701, 0.9950631;-0.05315936, -0.1231034, 0.04981349, 0.9897162;-0.03363252, -0.00278984, 0.00567602, 0.9994143;-0.003477462, 0.02917945, -0.02502854, 0.9992548;-0.207036, -0.1403428, 0.0183118, 0.9680417;0.09111304, 0.00407137, 0.02812923, 0.9954349;-0.03761665, -0.04293772, -0.01328605, 0.9982809;0.0006447434, 0.04917067, -0.02401883, 0.9985014;0, 0, 0, 1;0, 0, 0, 1;0, 0, 0, 1;0, 0, 0, 1;0, 0, 0, 1;True;False;0;
57.21;Position (-0.05168866, 0.02618864, -0.2607557), Orientation(0.9403723, 0.03465639, -0.3383259, 0.005868839);1.105962;0, 0, 0, 1;0, 0, 0, 1;0.3753869, 0.4245841, -0.007778856, 0.8238644;0.2602303, 0.02433088, 0.125678, 0.9570231;-0.08270362, -0.0769617, -0.08406225, 0.9900357;0.08350578, 0.0650157, -0.05827406, 0.9926752;0.03068309, -0.01885559, 0.04328144, 0.9984136;-0.02585241, -0.007116059, 0.003292941, 0.999635;-0.016056, -0.02714873, -0.07203398, 0.9969034;-0.009066326, -0.05146559, 0.05183575, 0.9972874;-0.01122824, -0.004378878, -0.001978263, 0.9999254;-0.03431955, -0.004611846, -0.09300701, 0.9950631;-0.05315936, -0.1231034, 0.04981349, 0.9897162;-0.03363252, -0.002789855, 0.005676027, 0.9994143;-0.003477462, 0.02917947, -0.02502854, 0.9992548;-0.207036, -0.1403428, 0.0183118, 0.9680417;0.09111304, 0.004071355, 0.02812922, 0.9954349;-0.03761665, -0.0429377, -0.01328605, 0.9982809;0.0006447434, 0.04917068, -0.02401882, 0.9985014;0, 0, 0, 1;0, 0, 0, 1;0, 0, 0, 1;0, 0, 0, 1;0, 0, 0, 1;True;False;0;;Position (-0.05168866, 0.02618864, -0.2607557), Orientation(-0.005868839, 0.3383259, 0.03465639, 0.9403723);1.105962;0, 0, 0, 1;0, 0, 0, 1;0.3753869, 0.4245841, -0.007778856, 0.8238644;0.2602303, 0.02433088, 0.125678, 0.9570231;-0.08270377, -0.0769617, -0.08406223, 0.9900357;0.08350593, 0.06501573, -0.05827406, 0.9926752;0.03068309, -0.01885559, 0.04328144, 0.9984136;-0.02585241, -0.007116061, 0.003292944, 0.999635;-0.016056, -0.02714872, -0.072034, 0.9969034;-0.009066326, -0.05146559, 0.05183575, 0.9972874;-0.01122823, -0.004378874, -0.001978267, 0.9999254;-0.03431955, -0.004611839, -0.09300701, 0.9950631;-0.05315936, -0.1231034, 0.04981349, 0.9897162;-0.03363252, -0.00278984, 0.00567602, 0.9994143;-0.003477462, 0.02917945, -0.02502854, 0.9992548;-0.207036, -0.1403428, 0.0183118, 0.9680417;0.09111304, 0.00407137, 0.02812923, 0.9954349;-0.03761665, -0.04293772, -0.01328605, 0.9982809;0.0006447434, 0.04917067, -0.02401883, 0.9985014;0, 0, 0, 1;0, 0, 0, 1;0, 0, 0, 1;0, 0, 0, 1;0, 0, 0, 1;True;False;0;
57.22;Position (-0.05168866, 0.02618864, -0.2607557), Orientation(0.9403723, 0.03465639, -0.3383259, 0.005868839);1.105962;0, 0, 0, 1;0, 0, 0, 1;0.3753869, 0.4245841, -0.007778856, 0.8238644;0.2602303, 0.02433088, 0.125678, 0.9570231;-0.08270362, -0.0769617, -0.08406225, 0.9900357;0.08350578, 0.0650157, -0.05827406, 0.9926752;0.03068309, -0.01885559, 0.04328144, 0.9984136;-0.02585241, -0.007116059, 0.003292941, 0.999635;-0.016056, -0.02714873, -0.07203398, 0.9969034;-0.009066326, -0.05146559, 0.05183575, 0.9972874;-0.01122824, -0.004378878, -0.001978263, 0.9999254;-0.03431955, -0.004611846, -0.09300701, 0.9950631;-0.05315936, -0.1231034, 0.04981349, 0.9897162;-0.03363252, -0.002789855, 0.005676027, 0.9994143;-0.003477462, 0.02917947, -0.02502854, 0.9992548;-0.207036, -0.1403428, 0.0183118, 0.9680417;0.09111304, 0.004071355, 0.02812922, 0.9954349;-0.03761665, -0.0429377, -0.01328605, 0.9982809;0.0006447434, 0.04917068, -0.02401882, 0.9985014;0, 0, 0, 1;0, 0, 0, 1;0, 0, 0, 1;0, 0, 0, 1;0, 0, 0, 1;True;False;0;;Position (-0.05168866, 0.02618864, -0.2607557), Orientation(-0.005868839, 0.3383259, 0.03465639, 0.9403723);1.105962;0, 0, 0, 1;0, 0, 0, 1;0.3753869, 0.4245841, -0.007778856, 0.8238644;0.2602303, 0.02433088, 0.125678, 0.9570231;-0.08270377, -0.0769617, -0.08406223, 0.9900357;0.08350593, 0.06501573, -0.05827406, 0.9926752;0.03068309, -0.01885559, 0.04328144, 0.9984136;-0.02585241, -0.007116061, 0.003292944, 0.999635;-0.016056, -0.02714872, -0.072034, 0.9969034;-0.009066326, -0.05146559, 0.05183575, 0.9972874;-0.01122823, -0.004378874, -0.001978267, 0.9999254;-0.03431955, -0.004611839, -0.09300701, 0.9950631;-0.05315936, -0.1231034, 0.04981349, 0.9897162;-0.03363252, -0.00278984, 0.00567602, 0.9994143;-0.003477462, 0.02917945, -0.02502854, 0.9992548;-0.207036, -0.1403428, 0.0183118, 0.9680417;0.09111304, 0.00407137, 0.02812923, 0.9954349;-0.03761665, -0.04293772, -0.01328605, 0.9982809;0.0006447434, 0.04917067, -0.02401883, 0.9985014;0, 0, 0, 1;0, 0, 0, 1;0, 0, 0, 1;0, 0, 0, 1;0, 0, 0, 1;True;False;0;
57.23;Position (-0.05168866, 0.02618864, -0.2607557), Orientation(0.9403723, 0.03465639, -0.3383259, 0.005868839);1.105962;0, 0, 0, 1;0, 0, 0, 1;0.3753869, 0.4245841, -0.007778856, 0.8238644;0.2602303, 0.02433088, 0.125678, 0.9570231;-0.08270362, -0.0769617, -0.08406225, 0.9900357;0.08350578, 0.0650157, -0.05827406, 0.9926752;0.03068309, -0.01885559, 0.04328144, 0.9984136;-0.02585241, -0.007116059, 0.003292941, 0.999635;-0.016056, -0.02714873, -0.07203398, 0.9969034;-0.009066326, -0.05146559, 0.05183575, 0.9972874;-0.01122824, -0.004378878, -0.001978263, 0.9999254;-0.03431955, -0.004611846, -0.09300701, 0.9950631;-0.05315936, -0.1231034, 0.04981349, 0.9897162;-0.03363252, -0.002789855, 0.005676027, 0.9994143;-0.003477462, 0.02917947, -0.02502854, 0.9992548;-0.207036, -0.1403428, 0.0183118, 0.9680417;0.09111304, 0.004071355, 0.02812922, 0.9954349;-0.03761665, -0.0429377, -0.01328605, 0.9982809;0.0006447434, 0.04917068, -0.02401882, 0.9985014;0, 0, 0, 1;0, 0, 0, 1;0, 0, 0, 1;0, 0, 0, 1;0, 0, 0, 1;True;False;0;;Position (-0.05168866, 0.02618864, -0.2607557), Orientation(-0.005868839, 0.3383259, 0.03465639, 0.9403723);1.105962;0, 0, 0, 1;0, 0, 0, 1;0.3753869, 0.4245841, -0.007778856, 0.8238644;0.2602303, 0.02433088, 0.125678, 0.9570231;-0.08270377, -0.0769617, -0.08406223, 0.9900357;0.08350593, 0.06501573, -0.05827406, 0.9926752;0.03068309, -0.01885559, 0.04328144, 0.9984136;-0.02585241, -0.007116061, 0.003292944, 0.999635;-0.016056, -0.02714872, -0.072034, 0.9969034;-0.009066326, -0.05146559, 0.05183575, 0.9972874;-0.01122823, -0.004378874, -0.001978267, 0.9999254;-0.03431955, -0.004611839, -0.09300701, 0.9950631;-0.05315936, -0.1231034, 0.04981349, 0.9897162;-0.03363252, -0.00278984, 0.00567602, 0.9994143;-0.003477462, 0.02917945, -0.02502854, 0.9992548;-0.207036, -0.1403428, 0.0183118, 0.9680417;0.09111304, 0.00407137, 0.02812923, 0.9954349;-0.03761665, -0.04293772, -0.01328605, 0.9982809;0.0006447434, 0.04917067, -0.02401883, 0.9985014;0, 0, 0, 1;0, 0, 0, 1;0, 0, 0, 1;0, 0, 0, 1;0, 0, 0, 1;True;False;0;
57.24;Position (-0.1163226, -0.2737703, -0.4802879), Orientation(-0.5939488, -0.7329478, 0.3149902, 0.1038917);1.105962;0, 0, 0, 1;0, 0, 0, 1;0.4091857, 0.4064697, 0.02304812, 0.8165894;0.2635373, -0.1671884, 0.07223986, 0.9473001;-0.07347867, -0.02010203, 0.491816, 0.8673603;0.07207654, 0.03383815, 0.2899883, 0.9537121;0.05407885, -0.1799597, -0.1040201, 0.9766626;-0.02629145, -0.0001863204, 0.2617093, 0.9647886;-0.01706865, -0.02260257, 0.1819967, 0.9828912;-0.1282807, -0.1365537, 0.6821343, 0.7068168;-0.0122811, 0.005504173, 0.7471589, 0.6645092;-0.09228995, 0.02489081, 0.5802633, 0.8088;-0.2017348, -0.1710793, 0.653033, 0.7096357;-0.04183523, 0.01975561, 0.6565624, 0.7528514;-0.03075246, 0.02664319, 0.5743911, 0.8175691;-0.207036, -0.1403428, 0.0183118, 0.9680417;-0.2185585, -0.2863187, 0.6706448, 0.6484514;-0.07443432, -0.02001519, 0.455115, 0.8870904;0.002084699, 0.04449651, 0.412194, 0.9100066;0, 0, 0, 1;0, 0, 0, 1;0, 0, 0, 1;0, 0, 0, 1;0, 0, 0, 1;True;False;0;;Position (-0.05285642, 0.02736731, -0.2578516), Orientation(-0.006682962, 0.3361692, 0.03526914, 0.9411173);1.105962;0, 0, 0, 1;0, 0, 0, 1;0.3753869, 0.4245841, -0.007778856, 0.8238644;0.2602303, 0.02433088, 0.125678, 0.9570231;-0.08270377, -0.0769617, -0.08406223, 0.9900357;0.08350593, 0.06501573, -0.05827406, 0.9926752;0.03068309, -0.01885559, 0.04328144, 0.9984136;-0.02585241, -0.007116061, 0.003292944, 0.999635;-0.016056, -0.02714872, -0.072034, 0.9969034;-0.009066326, -0.05146559, 0.05183575, 0.9972874;-0.01122823, -0.004378874, -0.001978267, 0.9999254;-0.03431955, -0.004611839, -0.09300701, 0.9950631;-0.05315936, -0.1231034, 0.04981349, 0.9897162;-0.03363252, -0.00278984, 0.00567602, 0.9994143;-0.003477462, 0.02917945, -0.02502854, 0.9992548;-0.207036, -0.1403428, 0.0183118, 0.9680417;0.09111304, 0.00407137, 0.02812923, 0.9954349;-0.03761665, -0.04293772, -0.01328605, 0.9982809;0.0006447434, 0.04917067, -0.02401883, 0.9985014;0, 0, 0, 1;0, 0, 0, 1;0, 0, 0, 1;0, 0, 0, 1;0, 0, 0, 1;True;False;0;
57.25;Position (-0.1163226, -0.2737703, -0.4802879), Orientation(-0.5939488, -0.7329478, 0.3149902, 0.1038917);1.105962;0, 0, 0, 1;0, 0, 0, 1;0.4091857, 0.4064697, 0.02304812, 0.8165894;0.2635373, -0.1671884, 0.07223986, 0.9473001;-0.07347867, -0.02010203, 0.491816, 0.8673603;0.07207654, 0.03383815, 0.2899883, 0.9537121;0.05407885, -0.1799597, -0.1040201, 0.9766626;-0.02629145, -0.0001863204, 0.2617093, 0.9647886;-0.01706865, -0.02260257, 0.1819967, 0.9828912;-0.1282807, -0.1365537, 0.6821343, 0.7068168;-0.0122811, 0.005504173, 0.7471589, 0.6645092;-0.09228995, 0.02489081, 0.5802633, 0.8088;-0.2017348, -0.1710793, 0.653033, 0.7096357;-0.04183523, 0.01975561, 0.6565624, 0.7528514;-0.03075246, 0.02664319, 0.5743911, 0.8175691;-0.207036, -0.1403428, 0.0183118, 0.9680417;-0.2185585, -0.2863187, 0.6706448, 0.6484514;-0.07443432, -0.02001519, 0.455115, 0.8870904;0.002084699, 0.04449651, 0.412194, 0.9100066;0, 0, 0, 1;0, 0, 0, 1;0, 0, 0, 1;0, 0, 0, 1;0, 0, 0, 1;True;False;0;;Position (-0.05285642, 0.02736731, -0.2578516), Orientation(-0.006682962, 0.3361692, 0.03526914, 0.9411173);1.105962;0, 0, 0, 1;0, 0, 0, 1;0.3753869, 0.4245841, -0.007778856, 0.8238644;0.2602303, 0.02433088, 0.125678, 0.9570231;-0.08270377, -0.0769617, -0.08406223, 0.9900357;0.08350593, 0.06501573, -0.05827406, 0.9926752;0.03068309, -0.01885559, 0.04328144, 0.9984136;-0.02585241, -0.007116061, 0.003292944, 0.999635;-0.016056, -0.02714872, -0.072034, 0.9969034;-0.009066326, -0.05146559, 0.05183575, 0.9972874;-0.01122823, -0.004378874, -0.001978267, 0.9999254;-0.03431955, -0.004611839, -0.09300701, 0.9950631;-0.05315936, -0.1231034, 0.04981349, 0.9897162;-0.03363252, -0.00278984, 0.00567602, 0.9994143;-0.003477462, 0.02917945, -0.02502854, 0.9992548;-0.207036, -0.1403428, 0.0183118, 0.9680417;0.09111304, 0.00407137, 0.02812923, 0.9954349;-0.03761665, -0.04293772, -0.01328605, 0.9982809;0.0006447434, 0.04917067, -0.02401883, 0.9985014;0, 0, 0, 1;0, 0, 0, 1;0, 0, 0, 1;0, 0, 0, 1;0, 0, 0, 1;True;False;0;
57.26;Position (-0.1163226, -0.2737703, -0.4802879), Orientation(-0.5939488, -0.7329478, 0.3149902, 0.1038917);1.105962;0, 0, 0, 1;0, 0, 0, 1;0.4091857, 0.4064697, 0.02304812, 0.8165894;0.2635373, -0.1671884, 0.07223986, 0.9473001;-0.07347867, -0.02010203, 0.491816, 0.8673603;0.07207654, 0.03383815, 0.2899883, 0.9537121;0.05407885, -0.1799597, -0.1040201, 0.9766626;-0.02629145, -0.0001863204, 0.2617093, 0.9647886;-0.01706865, -0.02260257, 0.1819967, 0.9828912;-0.1282807, -0.1365537, 0.6821343, 0.7068168;-0.0122811, 0.005504173, 0.7471589, 0.6645092;-0.09228995, 0.02489081, 0.5802633, 0.8088;-0.2017348, -0.1710793, 0.653033, 0.7096357;-0.04183523, 0.01975561, 0.6565624, 0.7528514;-0.03075246, 0.02664319, 0.5743911, 0.8175691;-0.207036, -0.1403428, 0.0183118, 0.9680417;-0.2185585, -0.2863187, 0.6706448, 0.6484514;-0.07443432, -0.02001519, 0.455115, 0.8870904;0.002084699, 0.04449651, 0.412194, 0.9100066;0, 0, 0, 1;0, 0, 0, 1;0, 0, 0, 1;0, 0, 0, 1;0, 0, 0, 1;True;False;0;;Position (-0.05285642, 0.02736731, -0.2578516), Orientation(-0.006682962, 0.3361692, 0.03526914, 0.9411173);1.105962;0, 0, 0, 1;0, 0, 0, 1;0.3753869, 0.4245841, -0.007778856, 0.8238644;0.2602303, 0.02433088, 0.125678, 0.9570231;-0.08270377, -0.0769617, -0.08406223, 0.9900357;0.08350593, 0.06501573, -0.05827406, 0.9926752;0.03068309, -0.01885559, 0.04328144, 0.9984136;-0.02585241, -0.007116061, 0.003292944, 0.999635;-0.016056, -0.02714872, -0.072034, 0.9969034;-0.009066326, -0.05146559, 0.05183575, 0.9972874;-0.01122823, -0.004378874, -0.001978267, 0.9999254;-0.03431955, -0.004611839, -0.09300701, 0.9950631;-0.05315936, -0.1231034, 0.04981349, 0.9897162;-0.03363252, -0.00278984, 0.00567602, 0.9994143;-0.003477462, 0.02917945, -0.02502854, 0.9992548;-0.207036, -0.1403428, 0.0183118, 0.9680417;0.09111304, 0.00407137, 0.02812923, 0.9954349;-0.03761665, -0.04293772, -0.01328605, 0.9982809;0.0006447434, 0.04917067, -0.02401883, 0.9985014;0, 0, 0, 1;0, 0, 0, 1;0, 0, 0, 1;0, 0, 0, 1;0, 0, 0, 1;True;False;0;
57.27;Position (-0.1163226, -0.2737703, -0.4802879), Orientation(-0.5939488, -0.7329478, 0.3149902, 0.1038917);1.105962;0, 0, 0, 1;0, 0, 0, 1;0.4091857, 0.4064697, 0.02304812, 0.8165894;0.2635373, -0.1671884, 0.07223986, 0.9473001;-0.07347867, -0.02010203, 0.491816, 0.8673603;0.07207654, 0.03383815, 0.2899883, 0.9537121;0.05407885, -0.1799597, -0.1040201, 0.9766626;-0.02629145, -0.0001863204, 0.2617093, 0.9647886;-0.01706865, -0.02260257, 0.1819967, 0.9828912;-0.1282807, -0.1365537, 0.6821343, 0.7068168;-0.0122811, 0.005504173, 0.7471589, 0.6645092;-0.09228995, 0.02489081, 0.5802633, 0.8088;-0.2017348, -0.1710793, 0.653033, 0.7096357;-0.04183523, 0.01975561, 0.6565624, 0.7528514;-0.03075246, 0.02664319, 0.5743911, 0.8175691;-0.207036, -0.1403428, 0.0183118, 0.9680417;-0.2185585, -0.2863187, 0.6706448, 0.6484514;-0.07443432, -0.02001519, 0.455115, 0.8870904;0.002084699, 0.04449651, 0.412194, 0.9100066;0, 0, 0, 1;0, 0, 0, 1;0, 0, 0, 1;0, 0, 0, 1;0, 0, 0, 1;True;False;0;;Position (-0.05285642, 0.02736731, -0.2578516), Orientation(-0.006682962, 0.3361692, 0.03526914, 0.9411173);1.105962;0, 0, 0, 1;0, 0, 0, 1;0.3753869, 0.4245841, -0.007778856, 0.8238644;0.2602303, 0.02433088, 0.125678, 0.9570231;-0.08270377, -0.0769617, -0.08406223, 0.9900357;0.08350593, 0.06501573, -0.05827406, 0.9926752;0.03068309, -0.01885559, 0.04328144, 0.9984136;-0.02585241, -0.007116061, 0.003292944, 0.999635;-0.016056, -0.02714872, -0.072034, 0.9969034;-0.009066326, -0.05146559, 0.05183575, 0.9972874;-0.01122823, -0.004378874, -0.001978267, 0.9999254;-0.03431955, -0.004611839, -0.09300701, 0.9950631;-0.05315936, -0.1231034, 0.04981349, 0.9897162;-0.03363252, -0.00278984, 0.00567602, 0.9994143;-0.003477462, 0.02917945, -0.02502854, 0.9992548;-0.207036, -0.1403428, 0.0183118, 0.9680417;0.09111304, 0.00407137, 0.02812923, 0.9954349;-0.03761665, -0.04293772, -0.01328605, 0.9982809;0.0006447434, 0.04917067, -0.02401883, 0.9985014;0, 0, 0, 1;0, 0, 0, 1;0, 0, 0, 1;0, 0, 0, 1;0, 0, 0, 1;True;False;0;
57.28;Position (-0.1163226, -0.2737703, -0.4802879), Orientation(-0.5939488, -0.7329478, 0.3149902, 0.1038917);1.105962;0, 0, 0, 1;0, 0, 0, 1;0.4091857, 0.4064697, 0.02304812, 0.8165894;0.2635373, -0.1671884, 0.07223986, 0.9473001;-0.07347867, -0.02010203, 0.491816, 0.8673603;0.07207654, 0.03383815, 0.2899883, 0.9537121;0.05407885, -0.1799597, -0.1040201, 0.9766626;-0.02629145, -0.0001863204, 0.2617093, 0.9647886;-0.01706865, -0.02260257, 0.1819967, 0.9828912;-0.1282807, -0.1365537, 0.6821343, 0.7068168;-0.0122811, 0.005504173, 0.7471589, 0.6645092;-0.09228995, 0.02489081, 0.5802633, 0.8088;-0.2017348, -0.1710793, 0.653033, 0.7096357;-0.04183523, 0.01975561, 0.6565624, 0.7528514;-0.03075246, 0.02664319, 0.5743911, 0.8175691;-0.207036, -0.1403428, 0.0183118, 0.9680417;-0.2185585, -0.2863187, 0.6706448, 0.6484514;-0.07443432, -0.02001519, 0.455115, 0.8870904;0.002084699, 0.04449651, 0.412194, 0.9100066;0, 0, 0, 1;0, 0, 0, 1;0, 0, 0, 1;0, 0, 0, 1;0, 0, 0, 1;True;False;0;;Position (-0.05285642, 0.02736731, -0.2578516), Orientation(-0.006682962, 0.3361692, 0.03526914, 0.9411173);1.105962;0, 0, 0, 1;0, 0, 0, 1;0.3753869, 0.4245841, -0.007778856, 0.8238644;0.2602303, 0.02433088, 0.125678, 0.9570231;-0.08270377, -0.0769617, -0.08406223, 0.9900357;0.08350593, 0.06501573, -0.05827406, 0.9926752;0.03068309, -0.01885559, 0.04328144, 0.9984136;-0.02585241, -0.007116061, 0.003292944, 0.999635;-0.016056, -0.02714872, -0.072034, 0.9969034;-0.009066326, -0.05146559, 0.05183575, 0.9972874;-0.01122823, -0.004378874, -0.001978267, 0.9999254;-0.03431955, -0.004611839, -0.09300701, 0.9950631;-0.05315936, -0.1231034, 0.04981349, 0.9897162;-0.03363252, -0.00278984, 0.00567602, 0.9994143;-0.003477462, 0.02917945, -0.02502854, 0.9992548;-0.207036, -0.1403428, 0.0183118, 0.9680417;0.09111304, 0.00407137, 0.02812923, 0.9954349;-0.03761665, -0.04293772, -0.01328605, 0.9982809;0.0006447434, 0.04917067, -0.02401883, 0.9985014;0, 0, 0, 1;0, 0, 0, 1;0, 0, 0, 1;0, 0, 0, 1;0, 0, 0, 1;True;False;0;
57.29;Position (-0.1163226, -0.2737703, -0.4802879), Orientation(-0.5939488, -0.7329478, 0.3149902, 0.1038917);1.105962;0, 0, 0, 1;0, 0, 0, 1;0.4091857, 0.4064697, 0.02304812, 0.8165894;0.2635373, -0.1671884, 0.07223986, 0.9473001;-0.07347867, -0.02010203, 0.491816, 0.8673603;0.07207654, 0.03383815, 0.2899883, 0.9537121;0.05407885, -0.1799597, -0.1040201, 0.9766626;-0.02629145, -0.0001863204, 0.2617093, 0.9647886;-0.01706865, -0.02260257, 0.1819967, 0.9828912;-0.1282807, -0.1365537, 0.6821343, 0.7068168;-0.0122811, 0.005504173, 0.7471589, 0.6645092;-0.09228995, 0.02489081, 0.5802633, 0.8088;-0.2017348, -0.1710793, 0.653033, 0.7096357;-0.04183523, 0.01975561, 0.6565624, 0.7528514;-0.03075246, 0.02664319, 0.5743911, 0.8175691;-0.207036, -0.1403428, 0.0183118, 0.9680417;-0.2185585, -0.2863187, 0.6706448, 0.6484514;-0.07443432, -0.02001519, 0.455115, 0.8870904;0.002084699, 0.04449651, 0.412194, 0.9100066;0, 0, 0, 1;0, 0, 0, 1;0, 0, 0, 1;0, 0, 0, 1;0, 0, 0, 1;True;False;0;;Position (-0.05285642, 0.02736731, -0.2578516), Orientation(-0.006682962, 0.3361692, 0.03526914, 0.9411173);1.105962;0, 0, 0, 1;0, 0, 0, 1;0.3753869, 0.4245841, -0.007778856, 0.8238644;0.2602303, 0.02433088, 0.125678, 0.9570231;-0.08270377, -0.0769617, -0.08406223, 0.9900357;0.08350593, 0.06501573, -0.05827406, 0.9926752;0.03068309, -0.01885559, 0.04328144, 0.9984136;-0.02585241, -0.007116061, 0.003292944, 0.999635;-0.016056, -0.02714872, -0.072034, 0.9969034;-0.009066326, -0.05146559, 0.05183575, 0.9972874;-0.01122823, -0.004378874, -0.001978267, 0.9999254;-0.03431955, -0.004611839, -0.09300701, 0.9950631;-0.05315936, -0.1231034, 0.04981349, 0.9897162;-0.03363252, -0.00278984, 0.00567602, 0.9994143;-0.003477462, 0.02917945, -0.02502854, 0.9992548;-0.207036, -0.1403428, 0.0183118, 0.9680417;0.09111304, 0.00407137, 0.02812923, 0.9954349;-0.03761665, -0.04293772, -0.01328605, 0.9982809;0.0006447434, 0.04917067, -0.02401883, 0.9985014;0, 0, 0, 1;0, 0, 0, 1;0, 0, 0, 1;0, 0, 0, 1;0, 0, 0, 1;True;False;0;
57.3;Position (-0.1163226, -0.2737703, -0.4802879), Orientation(-0.5939488, -0.7329478, 0.3149902, 0.1038917);1.105962;0, 0, 0, 1;0, 0, 0, 1;0.4091857, 0.4064697, 0.02304812, 0.8165894;0.2635373, -0.1671884, 0.07223986, 0.9473001;-0.07347867, -0.02010203, 0.491816, 0.8673603;0.07207654, 0.03383815, 0.2899883, 0.9537121;0.05407885, -0.1799597, -0.1040201, 0.9766626;-0.02629145, -0.0001863204, 0.2617093, 0.9647886;-0.01706865, -0.02260257, 0.1819967, 0.9828912;-0.1282807, -0.1365537, 0.6821343, 0.7068168;-0.0122811, 0.005504173, 0.7471589, 0.6645092;-0.09228995, 0.02489081, 0.5802633, 0.8088;-0.2017348, -0.1710793, 0.653033, 0.7096357;-0.04183523, 0.01975561, 0.6565624, 0.7528514;-0.03075246, 0.02664319, 0.5743911, 0.8175691;-0.207036, -0.1403428, 0.0183118, 0.9680417;-0.2185585, -0.2863187, 0.6706448, 0.6484514;-0.07443432, -0.02001519, 0.455115, 0.8870904;0.002084699, 0.04449651, 0.412194, 0.9100066;0, 0, 0, 1;0, 0, 0, 1;0, 0, 0, 1;0, 0, 0, 1;0, 0, 0, 1;True;False;0;;Position (-0.05285642, 0.02736731, -0.2578516), Orientation(-0.006682962, 0.3361692, 0.03526914, 0.9411173);1.105962;0, 0, 0, 1;0, 0, 0, 1;0.3753869, 0.4245841, -0.007778856, 0.8238644;0.2602303, 0.02433088, 0.125678, 0.9570231;-0.08270377, -0.0769617, -0.08406223, 0.9900357;0.08350593, 0.06501573, -0.05827406, 0.9926752;0.03068309, -0.01885559, 0.04328144, 0.9984136;-0.02585241, -0.007116061, 0.003292944, 0.999635;-0.016056, -0.02714872, -0.072034, 0.9969034;-0.009066326, -0.05146559, 0.05183575, 0.9972874;-0.01122823, -0.004378874, -0.001978267, 0.9999254;-0.03431955, -0.004611839, -0.09300701, 0.9950631;-0.05315936, -0.1231034, 0.04981349, 0.9897162;-0.03363252, -0.00278984, 0.00567602, 0.9994143;-0.003477462, 0.02917945, -0.02502854, 0.9992548;-0.207036, -0.1403428, 0.0183118, 0.9680417;0.09111304, 0.00407137, 0.02812923, 0.9954349;-0.03761665, -0.04293772, -0.01328605, 0.9982809;0.0006447434, 0.04917067, -0.02401883, 0.9985014;0, 0, 0, 1;0, 0, 0, 1;0, 0, 0, 1;0, 0, 0, 1;0, 0, 0, 1;True;False;0;
57.31;Position (-0.1163226, -0.2737703, -0.4802879), Orientation(-0.5939488, -0.7329478, 0.3149902, 0.1038917);1.105962;0, 0, 0, 1;0, 0, 0, 1;0.4091857, 0.4064697, 0.02304812, 0.8165894;0.2635373, -0.1671884, 0.07223986, 0.9473001;-0.07347867, -0.02010203, 0.491816, 0.8673603;0.07207654, 0.03383815, 0.2899883, 0.9537121;0.05407885, -0.1799597, -0.1040201, 0.9766626;-0.02629145, -0.0001863204, 0.2617093, 0.9647886;-0.01706865, -0.02260257, 0.1819967, 0.9828912;-0.1282807, -0.1365537, 0.6821343, 0.7068168;-0.0122811, 0.005504173, 0.7471589, 0.6645092;-0.09228995, 0.02489081, 0.5802633, 0.8088;-0.2017348, -0.1710793, 0.653033, 0.7096357;-0.04183523, 0.01975561, 0.6565624, 0.7528514;-0.03075246, 0.02664319, 0.5743911, 0.8175691;-0.207036, -0.1403428, 0.0183118, 0.9680417;-0.2185585, -0.2863187, 0.6706448, 0.6484514;-0.07443432, -0.02001519, 0.455115, 0.8870904;0.002084699, 0.04449651, 0.412194, 0.9100066;0, 0, 0, 1;0, 0, 0, 1;0, 0, 0, 1;0, 0, 0, 1;0, 0, 0, 1;True;False;0;;Position (-0.05285642, 0.02736731, -0.2578516), Orientation(-0.006682962, 0.3361692, 0.03526914, 0.9411173);1.105962;0, 0, 0, 1;0, 0, 0, 1;0.3753869, 0.4245841, -0.007778856, 0.8238644;0.2602303, 0.02433088, 0.125678, 0.9570231;-0.08270377, -0.0769617, -0.08406223, 0.9900357;0.08350593, 0.06501573, -0.05827406, 0.9926752;0.03068309, -0.01885559, 0.04328144, 0.9984136;-0.02585241, -0.007116061, 0.003292944, 0.999635;-0.016056, -0.02714872, -0.072034, 0.9969034;-0.009066326, -0.05146559, 0.05183575, 0.9972874;-0.01122823, -0.004378874, -0.001978267, 0.9999254;-0.03431955, -0.004611839, -0.09300701, 0.9950631;-0.05315936, -0.1231034, 0.04981349, 0.9897162;-0.03363252, -0.00278984, 0.00567602, 0.9994143;-0.003477462, 0.02917945, -0.02502854, 0.9992548;-0.207036, -0.1403428, 0.0183118, 0.9680417;0.09111304, 0.00407137, 0.02812923, 0.9954349;-0.03761665, -0.04293772, -0.01328605, 0.9982809;0.0006447434, 0.04917067, -0.02401883, 0.9985014;0, 0, 0, 1;0, 0, 0, 1;0, 0, 0, 1;0, 0, 0, 1;0, 0, 0, 1;True;False;0;
57.32;Position (-0.1235106, -0.3058457, -0.8691065), Orientation(-0.1332524, 0.1690121, 0.7974616, -0.5636787);1.105962;0, 0, 0, 1;0, 0, 0, 1;0.5776567, 0.2877308, 0.1926244, 0.739202;0.2524549, 0.149638, 0.1580819, 0.942807;-0.08287948, -0.0599231, 0.1176247, 0.9877777;0.07549004, 0.04135326, 0.2134142, 0.9731627;0.07583122, 0.1915798, 0.2528611, 0.9453084;-0.02613846, -0.005347539, 0.07101992, 0.9971181;-0.016056, -0.02714873, -0.07203398, 0.9969034;-0.001600374, 0.01008537, 0.5353464, 0.8445708;-0.0129197, 0.0009335638, 0.4324597, 0.9015602;-0.05840248, 0.006280879, 0.1563282, 0.985957;-0.09934441, -0.05931754, 0.5942486, 0.7959149;-0.03957387, 0.007324329, 0.3032996, 0.952045;-0.00929884, 0.02962136, 0.09952623, 0.9945505;-0.207036, -0.1403428, 0.0183118, 0.9680417;-0.02534246, -0.1396424, 0.6235611, 0.7687842;-0.05326561, -0.03510904, 0.1716137, 0.9830965;0.0008541697, 0.04910738, 0.03678587, 0.9981155;0, 0, 0, 1;0, 0, 0, 1;0, 0, 0, 1;0, 0, 0, 1;0, 0, 0, 1;True;False;0;;Position (-0.05459812, 0.02875137, -0.254428), Orientation(-0.00594787, 0.3344915, 0.03680727, 0.9416609);1.105962;0, 0, 0, 1;0, 0, 0, 1;0.3753869, 0.4245841, -0.007778856, 0.8238644;0.2602303, 0.02433088, 0.125678, 0.9570231;-0.08270377, -0.0769617, -0.08406223, 0.9900357;0.08350593, 0.06501573, -0.05827406, 0.9926752;0.03068309, -0.01885559, 0.04328144, 0.9984136;-0.02585241, -0.007116061, 0.003292944, 0.999635;-0.016056, -0.02714872, -0.072034, 0.9969034;-0.009066326, -0.05146559, 0.05183575, 0.9972874;-0.01122823, -0.004378874, -0.001978267, 0.9999254;-0.03431955, -0.004611839, -0.09300701, 0.9950631;-0.05315936, -0.1231034, 0.04981349, 0.9897162;-0.03363252, -0.00278984, 0.00567602, 0.9994143;-0.003477462, 0.02917945, -0.02502854, 0.9992548;-0.207036, -0.1403428, 0.0183118, 0.9680417;0.09111304, 0.00407137, 0.02812923, 0.9954349;-0.03761665, -0.04293772, -0.01328605, 0.9982809;0.0006447434, 0.04917067, -0.02401883, 0.9985014;0, 0, 0, 1;0, 0, 0, 1;0, 0, 0, 1;0, 0, 0, 1;0, 0, 0, 1;True;False;0;
57.33;Position (-0.1235106, -0.3058457, -0.8691065), Orientation(-0.1332524, 0.1690121, 0.7974616, -0.5636787);1.105962;0, 0, 0, 1;0, 0, 0, 1;0.5776567, 0.2877308, 0.1926244, 0.739202;0.2524549, 0.149638, 0.1580819, 0.942807;-0.08287948, -0.0599231, 0.1176247, 0.9877777;0.07549004, 0.04135326, 0.2134142, 0.9731627;0.07583122, 0.1915798, 0.2528611, 0.9453084;-0.02613846, -0.005347539, 0.07101992, 0.9971181;-0.016056, -0.02714873, -0.07203398, 0.9969034;-0.001600374, 0.01008537, 0.5353464, 0.8445708;-0.0129197, 0.0009335638, 0.4324597, 0.9015602;-0.05840248, 0.006280879, 0.1563282, 0.985957;-0.09934441, -0.05931754, 0.5942486, 0.7959149;-0.03957387, 0.007324329, 0.3032996, 0.952045;-0.00929884, 0.02962136, 0.09952623, 0.9945505;-0.207036, -0.1403428, 0.0183118, 0.9680417;-0.02534246, -0.1396424, 0.6235611, 0.7687842;-0.05326561, -0.03510904, 0.1716137, 0.9830965;0.0008541697, 0.04910738, 0.03678587, 0.9981155;0, 0, 0, 1;0, 0, 0, 1;0, 0, 0, 1;0, 0, 0, 1;0, 0, 0, 1;True;False;0;;Position (-0.05459812, 0.02875137, -0.254428), Orientation(-0.00594787, 0.3344915, 0.03680727, 0.9416609);1.105962;0, 0, 0, 1;0, 0, 0, 1;0.3753869, 0.4245841, -0.007778856, 0.8238644;0.2602303, 0.02433088, 0.125678, 0.9570231;-0.08270377, -0.0769617, -0.08406223, 0.9900357;0.08350593, 0.06501573, -0.05827406, 0.9926752;0.03068309, -0.01885559, 0.04328144, 0.9984136;-0.02585241, -0.007116061, 0.003292944, 0.999635;-0.016056, -0.02714872, -0.072034, 0.9969034;-0.009066326, -0.05146559, 0.05183575, 0.9972874;-0.01122823, -0.004378874, -0.001978267, 0.9999254;-0.03431955, -0.004611839, -0.09300701, 0.9950631;-0.05315936, -0.1231034, 0.04981349, 0.9897162;-0.03363252, -0.00278984, 0.00567602, 0.9994143;-0.003477462, 0.02917945, -0.02502854, 0.9992548;-0.207036, -0.1403428, 0.0183118, 0.9680417;0.09111304, 0.00407137, 0.02812923, 0.9954349;-0.03761665, -0.04293772, -0.01328605, 0.9982809;0.0006447434, 0.04917067, -0.02401883, 0.9985014;0, 0, 0, 1;0, 0, 0, 1;0, 0, 0, 1;0, 0, 0, 1;0, 0, 0, 1;True;False;0;
57.34;Position (-0.05662077, 0.03019564, -0.2504557), Orientation(0.9419382, 0.03926004, -0.3334554, 0.004313267);1.105962;0, 0, 0, 1;0, 0, 0, 1;0.3753869, 0.4245841, -0.007778856, 0.8238644;0.2602303, 0.02433088, 0.125678, 0.9570231;-0.08270362, -0.0769617, -0.08406225, 0.9900357;0.08350578, 0.0650157, -0.05827406, 0.9926752;0.03068309, -0.01885559, 0.04328144, 0.9984136;-0.02585241, -0.007116059, 0.003292941, 0.999635;-0.016056, -0.02714873, -0.07203398, 0.9969034;-0.009066326, -0.05146559, 0.05183575, 0.9972874;-0.01122824, -0.004378878, -0.001978263, 0.9999254;-0.03431955, -0.004611846, -0.09300701, 0.9950631;-0.05315936, -0.1231034, 0.04981349, 0.9897162;-0.03363252, -0.002789855, 0.005676027, 0.9994143;-0.003477462, 0.02917947, -0.02502854, 0.9992548;-0.207036, -0.1403428, 0.0183118, 0.9680417;0.09111304, 0.004071355, 0.02812922, 0.9954349;-0.03761665, -0.0429377, -0.01328605, 0.9982809;0.0006447434, 0.04917068, -0.02401882, 0.9985014;0, 0, 0, 1;0, 0, 0, 1;0, 0, 0, 1;0, 0, 0, 1;0, 0, 0, 1;True;False;0;;Position (-0.05662077, 0.03019564, -0.2504557), Orientation(-0.004313267, 0.3334554, 0.03926004, 0.9419382);1.105962;0, 0, 0, 1;0, 0, 0, 1;0.3753869, 0.4245841, -0.007778856, 0.8238644;0.2602303, 0.02433088, 0.125678, 0.9570231;-0.08270377, -0.0769617, -0.08406223, 0.9900357;0.08350593, 0.06501573, -0.05827406, 0.9926752;0.03068309, -0.01885559, 0.04328144, 0.9984136;-0.02585241, -0.007116061, 0.003292944, 0.999635;-0.016056, -0.02714872, -0.072034, 0.9969034;-0.009066326, -0.05146559, 0.05183575, 0.9972874;-0.01122823, -0.004378874, -0.001978267, 0.9999254;-0.03431955, -0.004611839, -0.09300701, 0.9950631;-0.05315936, -0.1231034, 0.04981349, 0.9897162;-0.03363252, -0.00278984, 0.00567602, 0.9994143;-0.003477462, 0.02917945, -0.02502854, 0.9992548;-0.207036, -0.1403428, 0.0183118, 0.9680417;0.09111304, 0.00407137, 0.02812923, 0.9954349;-0.03761665, -0.04293772, -0.01328605, 0.9982809;0.0006447434, 0.04917067, -0.02401883, 0.9985014;0, 0, 0, 1;0, 0, 0, 1;0, 0, 0, 1;0, 0, 0, 1;0, 0, 0, 1;True;False;0;
57.35;Position (-0.05662077, 0.03019564, -0.2504557), Orientation(0.9419382, 0.03926004, -0.3334554, 0.004313267);1.105962;0, 0, 0, 1;0, 0, 0, 1;0.3753869, 0.4245841, -0.007778856, 0.8238644;0.2602303, 0.02433088, 0.125678, 0.9570231;-0.08270362, -0.0769617, -0.08406225, 0.9900357;0.08350578, 0.0650157, -0.05827406, 0.9926752;0.03068309, -0.01885559, 0.04328144, 0.9984136;-0.02585241, -0.007116059, 0.003292941, 0.999635;-0.016056, -0.02714873, -0.07203398, 0.9969034;-0.009066326, -0.05146559, 0.05183575, 0.9972874;-0.01122824, -0.004378878, -0.001978263, 0.9999254;-0.03431955, -0.004611846, -0.09300701, 0.9950631;-0.05315936, -0.1231034, 0.04981349, 0.9897162;-0.03363252, -0.002789855, 0.005676027, 0.9994143;-0.003477462, 0.02917947, -0.02502854, 0.9992548;-0.207036, -0.1403428, 0.0183118, 0.9680417;0.09111304, 0.004071355, 0.02812922, 0.9954349;-0.03761665, -0.0429377, -0.01328605, 0.9982809;0.0006447434, 0.04917068, -0.02401882, 0.9985014;0, 0, 0, 1;0, 0, 0, 1;0, 0, 0, 1;0, 0, 0, 1;0, 0, 0, 1;True;False;0;;Position (-0.05662077, 0.03019564, -0.2504557), Orientation(-0.004313267, 0.3334554, 0.03926004, 0.9419382);1.105962;0, 0, 0, 1;0, 0, 0, 1;0.3753869, 0.4245841, -0.007778856, 0.8238644;0.2602303, 0.02433088, 0.125678, 0.9570231;-0.08270377, -0.0769617, -0.08406223, 0.9900357;0.08350593, 0.06501573, -0.05827406, 0.9926752;0.03068309, -0.01885559, 0.04328144, 0.9984136;-0.02585241, -0.007116061, 0.003292944, 0.999635;-0.016056, -0.02714872, -0.072034, 0.9969034;-0.009066326, -0.05146559, 0.05183575, 0.9972874;-0.01122823, -0.004378874, -0.001978267, 0.9999254;-0.03431955, -0.004611839, -0.09300701, 0.9950631;-0.05315936, -0.1231034, 0.04981349, 0.9897162;-0.03363252, -0.00278984, 0.00567602, 0.9994143;-0.003477462, 0.02917945, -0.02502854, 0.9992548;-0.207036, -0.1403428, 0.0183118, 0.9680417;0.09111304, 0.00407137, 0.02812923, 0.9954349;-0.03761665, -0.04293772, -0.01328605, 0.9982809;0.0006447434, 0.04917067, -0.02401883, 0.9985014;0, 0, 0, 1;0, 0, 0, 1;0, 0, 0, 1;0, 0, 0, 1;0, 0, 0, 1;True;False;0;
57.36;Position (-0.05662077, 0.03019564, -0.2504557), Orientation(0.9419382, 0.03926004, -0.3334554, 0.004313267);1.105962;0, 0, 0, 1;0, 0, 0, 1;0.3753869, 0.4245841, -0.007778856, 0.8238644;0.2602303, 0.02433088, 0.125678, 0.9570231;-0.08270362, -0.0769617, -0.08406225, 0.9900357;0.08350578, 0.0650157, -0.05827406, 0.9926752;0.03068309, -0.01885559, 0.04328144, 0.9984136;-0.02585241, -0.007116059, 0.003292941, 0.999635;-0.016056, -0.02714873, -0.07203398, 0.9969034;-0.009066326, -0.05146559, 0.05183575, 0.9972874;-0.01122824, -0.004378878, -0.001978263, 0.9999254;-0.03431955, -0.004611846, -0.09300701, 0.9950631;-0.05315936, -0.1231034, 0.04981349, 0.9897162;-0.03363252, -0.002789855, 0.005676027, 0.9994143;-0.003477462, 0.02917947, -0.02502854, 0.9992548;-0.207036, -0.1403428, 0.0183118, 0.9680417;0.09111304, 0.004071355, 0.02812922, 0.9954349;-0.03761665, -0.0429377, -0.01328605, 0.9982809;0.0006447434, 0.04917068, -0.02401882, 0.9985014;0, 0, 0, 1;0, 0, 0, 1;0, 0, 0, 1;0, 0, 0, 1;0, 0, 0, 1;True;False;0;;Position (-0.05662077, 0.03019564, -0.2504557), Orientation(-0.004313267, 0.3334554, 0.03926004, 0.9419382);1.105962;0, 0, 0, 1;0, 0, 0, 1;0.3753869, 0.4245841, -0.007778856, 0.8238644;0.2602303, 0.02433088, 0.125678, 0.9570231;-0.08270377, -0.0769617, -0.08406223, 0.9900357;0.08350593, 0.06501573, -0.05827406, 0.9926752;0.03068309, -0.01885559, 0.04328144, 0.9984136;-0.02585241, -0.007116061, 0.003292944, 0.999635;-0.016056, -0.02714872, -0.072034, 0.9969034;-0.009066326, -0.05146559, 0.05183575, 0.9972874;-0.01122823, -0.004378874, -0.001978267, 0.9999254;-0.03431955, -0.004611839, -0.09300701, 0.9950631;-0.05315936, -0.1231034, 0.04981349, 0.9897162;-0.03363252, -0.00278984, 0.00567602, 0.9994143;-0.003477462, 0.02917945, -0.02502854, 0.9992548;-0.207036, -0.1403428, 0.0183118, 0.9680417;0.09111304, 0.00407137, 0.02812923, 0.9954349;-0.03761665, -0.04293772, -0.01328605, 0.9982809;0.0006447434, 0.04917067, -0.02401883, 0.9985014;0, 0, 0, 1;0, 0, 0, 1;0, 0, 0, 1;0, 0, 0, 1;0, 0, 0, 1;True;False;0;
57.37;Position (-0.05662077, 0.03019564, -0.2504557), Orientation(0.9419382, 0.03926004, -0.3334554, 0.004313267);1.105962;0, 0, 0, 1;0, 0, 0, 1;0.3753869, 0.4245841, -0.007778856, 0.8238644;0.2602303, 0.02433088, 0.125678, 0.9570231;-0.08270362, -0.0769617, -0.08406225, 0.9900357;0.08350578, 0.0650157, -0.05827406, 0.9926752;0.03068309, -0.01885559, 0.04328144, 0.9984136;-0.02585241, -0.007116059, 0.003292941, 0.999635;-0.016056, -0.02714873, -0.07203398, 0.9969034;-0.009066326, -0.05146559, 0.05183575, 0.9972874;-0.01122824, -0.004378878, -0.001978263, 0.9999254;-0.03431955, -0.004611846, -0.09300701, 0.9950631;-0.05315936, -0.1231034, 0.04981349, 0.9897162;-0.03363252, -0.002789855, 0.005676027, 0.9994143;-0.003477462, 0.02917947, -0.02502854, 0.9992548;-0.207036, -0.1403428, 0.0183118, 0.9680417;0.09111304, 0.004071355, 0.02812922, 0.9954349;-0.03761665, -0.0429377, -0.01328605, 0.9982809;0.0006447434, 0.04917068, -0.02401882, 0.9985014;0, 0, 0, 1;0, 0, 0, 1;0, 0, 0, 1;0, 0, 0, 1;0, 0, 0, 1;True;False;0;;Position (-0.05662077, 0.03019564, -0.2504557), Orientation(-0.004313267, 0.3334554, 0.03926004, 0.9419382);1.105962;0, 0, 0, 1;0, 0, 0, 1;0.3753869, 0.4245841, -0.007778856, 0.8238644;0.2602303, 0.02433088, 0.125678, 0.9570231;-0.08270377, -0.0769617, -0.08406223, 0.9900357;0.08350593, 0.06501573, -0.05827406, 0.9926752;0.03068309, -0.01885559, 0.04328144, 0.9984136;-0.02585241, -0.007116061, 0.003292944, 0.999635;-0.016056, -0.02714872, -0.072034, 0.9969034;-0.009066326, -0.05146559, 0.05183575, 0.9972874;-0.01122823, -0.004378874, -0.001978267, 0.9999254;-0.03431955, -0.004611839, -0.09300701, 0.9950631;-0.05315936, -0.1231034, 0.04981349, 0.9897162;-0.03363252, -0.00278984, 0.00567602, 0.9994143;-0.003477462, 0.02917945, -0.02502854, 0.9992548;-0.207036, -0.1403428, 0.0183118, 0.9680417;0.09111304, 0.00407137, 0.02812923, 0.9954349;-0.03761665, -0.04293772, -0.01328605, 0.9982809;0.0006447434, 0.04917067, -0.02401883, 0.9985014;0, 0, 0, 1;0, 0, 0, 1;0, 0, 0, 1;0, 0, 0, 1;0, 0, 0, 1;True;False;0;
57.38;Position (-0.05859534, 0.03170775, -0.2464217), Orientation(0.9423409, 0.04146592, -0.3320745, 0.0009924425);1.105962;0, 0, 0, 1;0, 0, 0, 1;0.3753869, 0.4245841, -0.007778856, 0.8238644;0.2602303, 0.02433088, 0.125678, 0.9570231;-0.08270362, -0.0769617, -0.08406225, 0.9900357;0.08350578, 0.0650157, -0.05827406, 0.9926752;0.03068309, -0.01885559, 0.04328144, 0.9984136;-0.02585241, -0.007116059, 0.003292941, 0.999635;-0.016056, -0.02714873, -0.07203398, 0.9969034;-0.009066326, -0.05146559, 0.05183575, 0.9972874;-0.01122824, -0.004378878, -0.001978263, 0.9999254;-0.03431955, -0.004611846, -0.09300701, 0.9950631;-0.05315936, -0.1231034, 0.04981349, 0.9897162;-0.03363252, -0.002789855, 0.005676027, 0.9994143;-0.003477462, 0.02917947, -0.02502854, 0.9992548;-0.207036, -0.1403428, 0.0183118, 0.9680417;0.09111304, 0.004071355, 0.02812922, 0.9954349;-0.03761665, -0.0429377, -0.01328605, 0.9982809;0.0006447434, 0.04917068, -0.02401882, 0.9985014;0, 0, 0, 1;0, 0, 0, 1;0, 0, 0, 1;0, 0, 0, 1;0, 0, 0, 1;True;False;0;;Position (-0.05859534, 0.03170775, -0.2464217), Orientation(-0.0009924425, 0.3320745, 0.04146592, 0.9423409);1.105962;0, 0, 0, 1;0, 0, 0, 1;0.3753869, 0.4245841, -0.007778856, 0.8238644;0.2602303, 0.02433088, 0.125678, 0.9570231;-0.08270377, -0.0769617, -0.08406223, 0.9900357;0.08350593, 0.06501573, -0.05827406, 0.9926752;0.03068309, -0.01885559, 0.04328144, 0.9984136;-0.02585241, -0.007116061, 0.003292944, 0.999635;-0.016056, -0.02714872, -0.072034, 0.9969034;-0.009066326, -0.05146559, 0.05183575, 0.9972874;-0.01122823, -0.004378874, -0.001978267, 0.9999254;-0.03431955, -0.004611839, -0.09300701, 0.9950631;-0.05315936, -0.1231034, 0.04981349, 0.9897162;-0.03363252, -0.00278984, 0.00567602, 0.9994143;-0.003477462, 0.02917945, -0.02502854, 0.9992548;-0.207036, -0.1403428, 0.0183118, 0.9680417;0.09111304, 0.00407137, 0.02812923, 0.9954349;-0.03761665, -0.04293772, -0.01328605, 0.9982809;0.0006447434, 0.04917067, -0.02401883, 0.9985014;0, 0, 0, 1;0, 0, 0, 1;0, 0, 0, 1;0, 0, 0, 1;0, 0, 0, 1;True;False;0;
57.39;Position (-0.05859534, 0.03170775, -0.2464217), Orientation(0.9423409, 0.04146592, -0.3320745, 0.0009924425);1.105962;0, 0, 0, 1;0, 0, 0, 1;0.3753869, 0.4245841, -0.007778856, 0.8238644;0.2602303, 0.02433088, 0.125678, 0.9570231;-0.08270362, -0.0769617, -0.08406225, 0.9900357;0.08350578, 0.0650157, -0.05827406, 0.9926752;0.03068309, -0.01885559, 0.04328144, 0.9984136;-0.02585241, -0.007116059, 0.003292941, 0.999635;-0.016056, -0.02714873, -0.07203398, 0.9969034;-0.009066326, -0.05146559, 0.05183575, 0.9972874;-0.01122824, -0.004378878, -0.001978263, 0.9999254;-0.03431955, -0.004611846, -0.09300701, 0.9950631;-0.05315936, -0.1231034, 0.04981349, 0.9897162;-0.03363252, -0.002789855, 0.005676027, 0.9994143;-0.003477462, 0.02917947, -0.02502854, 0.9992548;-0.207036, -0.1403428, 0.0183118, 0.9680417;0.09111304, 0.004071355, 0.02812922, 0.9954349;-0.03761665, -0.0429377, -0.01328605, 0.9982809;0.0006447434, 0.04917068, -0.02401882, 0.9985014;0, 0, 0, 1;0, 0, 0, 1;0, 0, 0, 1;0, 0, 0, 1;0, 0, 0, 1;True;False;0;;Position (-0.05859534, 0.03170775, -0.2464217), Orientation(-0.0009924425, 0.3320745, 0.04146592, 0.9423409);1.105962;0, 0, 0, 1;0, 0, 0, 1;0.3753869, 0.4245841, -0.007778856, 0.8238644;0.2602303, 0.02433088, 0.125678, 0.9570231;-0.08270377, -0.0769617, -0.08406223, 0.9900357;0.08350593, 0.06501573, -0.05827406, 0.9926752;0.03068309, -0.01885559, 0.04328144, 0.9984136;-0.02585241, -0.007116061, 0.003292944, 0.999635;-0.016056, -0.02714872, -0.072034, 0.9969034;-0.009066326, -0.05146559, 0.05183575, 0.9972874;-0.01122823, -0.004378874, -0.001978267, 0.9999254;-0.03431955, -0.004611839, -0.09300701, 0.9950631;-0.05315936, -0.1231034, 0.04981349, 0.9897162;-0.03363252, -0.00278984, 0.00567602, 0.9994143;-0.003477462, 0.02917945, -0.02502854, 0.9992548;-0.207036, -0.1403428, 0.0183118, 0.9680417;0.09111304, 0.00407137, 0.02812923, 0.9954349;-0.03761665, -0.04293772, -0.01328605, 0.9982809;0.0006447434, 0.04917067, -0.02401883, 0.9985014;0, 0, 0, 1;0, 0, 0, 1;0, 0, 0, 1;0, 0, 0, 1;0, 0, 0, 1;True;False;0;
57.4;Position (-0.05859534, 0.03170775, -0.2464217), Orientation(0.9423409, 0.04146592, -0.3320745, 0.0009924425);1.105962;0, 0, 0, 1;0, 0, 0, 1;0.3753869, 0.4245841, -0.007778856, 0.8238644;0.2602303, 0.02433088, 0.125678, 0.9570231;-0.08270362, -0.0769617, -0.08406225, 0.9900357;0.08350578, 0.0650157, -0.05827406, 0.9926752;0.03068309, -0.01885559, 0.04328144, 0.9984136;-0.02585241, -0.007116059, 0.003292941, 0.999635;-0.016056, -0.02714873, -0.07203398, 0.9969034;-0.009066326, -0.05146559, 0.05183575, 0.9972874;-0.01122824, -0.004378878, -0.001978263, 0.9999254;-0.03431955, -0.004611846, -0.09300701, 0.9950631;-0.05315936, -0.1231034, 0.04981349, 0.9897162;-0.03363252, -0.002789855, 0.005676027, 0.9994143;-0.003477462, 0.02917947, -0.02502854, 0.9992548;-0.207036, -0.1403428, 0.0183118, 0.9680417;0.09111304, 0.004071355, 0.02812922, 0.9954349;-0.03761665, -0.0429377, -0.01328605, 0.9982809;0.0006447434, 0.04917068, -0.02401882, 0.9985014;0, 0, 0, 1;0, 0, 0, 1;0, 0, 0, 1;0, 0, 0, 1;0, 0, 0, 1;True;False;0;;Position (-0.05859534, 0.03170775, -0.2464217), Orientation(-0.0009924425, 0.3320745, 0.04146592, 0.9423409);1.105962;0, 0, 0, 1;0, 0, 0, 1;0.3753869, 0.4245841, -0.007778856, 0.8238644;0.2602303, 0.02433088, 0.125678, 0.9570231;-0.08270377, -0.0769617, -0.08406223, 0.9900357;0.08350593, 0.06501573, -0.05827406, 0.9926752;0.03068309, -0.01885559, 0.04328144, 0.9984136;-0.02585241, -0.007116061, 0.003292944, 0.999635;-0.016056, -0.02714872, -0.072034, 0.9969034;-0.009066326, -0.05146559, 0.05183575, 0.9972874;-0.01122823, -0.004378874, -0.001978267, 0.9999254;-0.03431955, -0.004611839, -0.09300701, 0.9950631;-0.05315936, -0.1231034, 0.04981349, 0.9897162;-0.03363252, -0.00278984, 0.00567602, 0.9994143;-0.003477462, 0.02917945, -0.02502854, 0.9992548;-0.207036, -0.1403428, 0.0183118, 0.9680417;0.09111304, 0.00407137, 0.02812923, 0.9954349;-0.03761665, -0.04293772, -0.01328605, 0.9982809;0.0006447434, 0.04917067, -0.02401883, 0.9985014;0, 0, 0, 1;0, 0, 0, 1;0, 0, 0, 1;0, 0, 0, 1;0, 0, 0, 1;True;False;0;
57.41;Position (-0.05859534, 0.03170775, -0.2464217), Orientation(0.9423409, 0.04146592, -0.3320745, 0.0009924425);1.105962;0, 0, 0, 1;0, 0, 0, 1;0.3753869, 0.4245841, -0.007778856, 0.8238644;0.2602303, 0.02433088, 0.125678, 0.9570231;-0.08270362, -0.0769617, -0.08406225, 0.9900357;0.08350578, 0.0650157, -0.05827406, 0.9926752;0.03068309, -0.01885559, 0.04328144, 0.9984136;-0.02585241, -0.007116059, 0.003292941, 0.999635;-0.016056, -0.02714873, -0.07203398, 0.9969034;-0.009066326, -0.05146559, 0.05183575, 0.9972874;-0.01122824, -0.004378878, -0.001978263, 0.9999254;-0.03431955, -0.004611846, -0.09300701, 0.9950631;-0.05315936, -0.1231034, 0.04981349, 0.9897162;-0.03363252, -0.002789855, 0.005676027, 0.9994143;-0.003477462, 0.02917947, -0.02502854, 0.9992548;-0.207036, -0.1403428, 0.0183118, 0.9680417;0.09111304, 0.004071355, 0.02812922, 0.9954349;-0.03761665, -0.0429377, -0.01328605, 0.9982809;0.0006447434, 0.04917068, -0.02401882, 0.9985014;0, 0, 0, 1;0, 0, 0, 1;0, 0, 0, 1;0, 0, 0, 1;0, 0, 0, 1;True;False;0;;Position (-0.05859534, 0.03170775, -0.2464217), Orientation(-0.0009924425, 0.3320745, 0.04146592, 0.9423409);1.105962;0, 0, 0, 1;0, 0, 0, 1;0.3753869, 0.4245841, -0.007778856, 0.8238644;0.2602303, 0.02433088, 0.125678, 0.9570231;-0.08270377, -0.0769617, -0.08406223, 0.9900357;0.08350593, 0.06501573, -0.05827406, 0.9926752;0.03068309, -0.01885559, 0.04328144, 0.9984136;-0.02585241, -0.007116061, 0.003292944, 0.999635;-0.016056, -0.02714872, -0.072034, 0.9969034;-0.009066326, -0.05146559, 0.05183575, 0.9972874;-0.01122823, -0.004378874, -0.001978267, 0.9999254;-0.03431955, -0.004611839, -0.09300701, 0.9950631;-0.05315936, -0.1231034, 0.04981349, 0.9897162;-0.03363252, -0.00278984, 0.00567602, 0.9994143;-0.003477462, 0.02917945, -0.02502854, 0.9992548;-0.207036, -0.1403428, 0.0183118, 0.9680417;0.09111304, 0.00407137, 0.02812923, 0.9954349;-0.03761665, -0.04293772, -0.01328605, 0.9982809;0.0006447434, 0.04917067, -0.02401883, 0.9985014;0, 0, 0, 1;0, 0, 0, 1;0, 0, 0, 1;0, 0, 0, 1;0, 0, 0, 1;True;False;0;
57.42;Position (-0.05859534, 0.03170775, -0.2464217), Orientation(0.9423409, 0.04146592, -0.3320745, 0.0009924425);1.105962;0, 0, 0, 1;0, 0, 0, 1;0.3753869, 0.4245841, -0.007778856, 0.8238644;0.2602303, 0.02433088, 0.125678, 0.9570231;-0.08270362, -0.0769617, -0.08406225, 0.9900357;0.08350578, 0.0650157, -0.05827406, 0.9926752;0.03068309, -0.01885559, 0.04328144, 0.9984136;-0.02585241, -0.007116059, 0.003292941, 0.999635;-0.016056, -0.02714873, -0.07203398, 0.9969034;-0.009066326, -0.05146559, 0.05183575, 0.9972874;-0.01122824, -0.004378878, -0.001978263, 0.9999254;-0.03431955, -0.004611846, -0.09300701, 0.9950631;-0.05315936, -0.1231034, 0.04981349, 0.9897162;-0.03363252, -0.002789855, 0.005676027, 0.9994143;-0.003477462, 0.02917947, -0.02502854, 0.9992548;-0.207036, -0.1403428, 0.0183118, 0.9680417;0.09111304, 0.004071355, 0.02812922, 0.9954349;-0.03761665, -0.0429377, -0.01328605, 0.9982809;0.0006447434, 0.04917068, -0.02401882, 0.9985014;0, 0, 0, 1;0, 0, 0, 1;0, 0, 0, 1;0, 0, 0, 1;0, 0, 0, 1;True;False;0;;Position (-0.05859534, 0.03170775, -0.2464217), Orientation(-0.0009924425, 0.3320745, 0.04146592, 0.9423409);1.105962;0, 0, 0, 1;0, 0, 0, 1;0.3753869, 0.4245841, -0.007778856, 0.8238644;0.2602303, 0.02433088, 0.125678, 0.9570231;-0.08270377, -0.0769617, -0.08406223, 0.9900357;0.08350593, 0.06501573, -0.05827406, 0.9926752;0.03068309, -0.01885559, 0.04328144, 0.9984136;-0.02585241, -0.007116061, 0.003292944, 0.999635;-0.016056, -0.02714872, -0.072034, 0.9969034;-0.009066326, -0.05146559, 0.05183575, 0.9972874;-0.01122823, -0.004378874, -0.001978267, 0.9999254;-0.03431955, -0.004611839, -0.09300701, 0.9950631;-0.05315936, -0.1231034, 0.04981349, 0.9897162;-0.03363252, -0.00278984, 0.00567602, 0.9994143;-0.003477462, 0.02917945, -0.02502854, 0.9992548;-0.207036, -0.1403428, 0.0183118, 0.9680417;0.09111304, 0.00407137, 0.02812923, 0.9954349;-0.03761665, -0.04293772, -0.01328605, 0.9982809;0.0006447434, 0.04917067, -0.02401883, 0.9985014;0, 0, 0, 1;0, 0, 0, 1;0, 0, 0, 1;0, 0, 0, 1;0, 0, 0, 1;True;False;0;
57.43;Position (-0.08918469, -0.3339537, -0.7501923), Orientation(0.1047251, 0.7321988, -0.6151745, 0.2729067);1.105962;0, 0, 0, 1;0, 0, 0, 1;0.4037706, 0.4094771, 0.01805031, 0.8179072;0.2636423, -0.109793, 0.08875441, 0.9542332;-0.08300265, -0.06155214, 0.09972657, 0.9896345;0.08010323, 0.05325174, 0.08331778, 0.9918699;0.0346474, -0.00998501, 0.2179084, 0.9753029;-0.02634178, -0.001295351, 0.2215844, 0.9747846;-0.01666928, -0.025206, 0.04832401, 0.9983746;-0.02146037, -0.05668779, 0.2782682, 0.958589;-0.01250143, -0.001380363, 0.2522177, 0.9675889;-0.04847803, 0.001635113, 0.05008401, 0.9975665;-0.07995561, -0.1030633, 0.3003495, 0.9448679;-0.04001838, 0.00842283, 0.3351245, 0.941286;-0.01345713, 0.02965292, 0.1894742, 0.9813456;-0.207036, -0.1403428, 0.0183118, 0.9680417;0.06694936, -0.06462681, 0.2494947, 0.963895;-0.07051068, -0.02336717, 0.3984592, 0.9141732;0.001539878, 0.04753364, 0.2417191, 0.9691802;0, 0, 0, 1;0, 0, 0, 1;0, 0, 0, 1;0, 0, 0, 1;0, 0, 0, 1;True;False;0;;Position (-0.06031204, 0.03290189, -0.2422964), Orientation(0.00052696, 0.3299529, 0.04372491, 0.9429841);1.105962;0, 0, 0, 1;0, 0, 0, 1;0.3753869, 0.4245841, -0.007778856, 0.8238644;0.2602303, 0.02433088, 0.125678, 0.9570231;-0.08270377, -0.0769617, -0.08406223, 0.9900357;0.08350593, 0.06501573, -0.05827406, 0.9926752;0.03068309, -0.01885559, 0.04328144, 0.9984136;-0.02585241, -0.007116061, 0.003292944, 0.999635;-0.016056, -0.02714872, -0.072034, 0.9969034;-0.009066326, -0.05146559, 0.05183575, 0.9972874;-0.01122823, -0.004378874, -0.001978267, 0.9999254;-0.03431955, -0.004611839, -0.09300701, 0.9950631;-0.05315936, -0.1231034, 0.04981349, 0.9897162;-0.03363252, -0.00278984, 0.00567602, 0.9994143;-0.003477462, 0.02917945, -0.02502854, 0.9992548;-0.207036, -0.1403428, 0.0183118, 0.9680417;0.09111304, 0.00407137, 0.02812923, 0.9954349;-0.03761665, -0.04293772, -0.01328605, 0.9982809;0.0006447434, 0.04917067, -0.02401883, 0.9985014;0, 0, 0, 1;0, 0, 0, 1;0, 0, 0, 1;0, 0, 0, 1;0, 0, 0, 1;True;False;0;
57.44;Position (-0.08918469, -0.3339537, -0.7501923), Orientation(0.1047251, 0.7321988, -0.6151745, 0.2729067);1.105962;0, 0, 0, 1;0, 0, 0, 1;0.4037706, 0.4094771, 0.01805031, 0.8179072;0.2636423, -0.109793, 0.08875441, 0.9542332;-0.08300265, -0.06155214, 0.09972657, 0.9896345;0.08010323, 0.05325174, 0.08331778, 0.9918699;0.0346474, -0.00998501, 0.2179084, 0.9753029;-0.02634178, -0.001295351, 0.2215844, 0.9747846;-0.01666928, -0.025206, 0.04832401, 0.9983746;-0.02146037, -0.05668779, 0.2782682, 0.958589;-0.01250143, -0.001380363, 0.2522177, 0.9675889;-0.04847803, 0.001635113, 0.05008401, 0.9975665;-0.07995561, -0.1030633, 0.3003495, 0.9448679;-0.04001838, 0.00842283, 0.3351245, 0.941286;-0.01345713, 0.02965292, 0.1894742, 0.9813456;-0.207036, -0.1403428, 0.0183118, 0.9680417;0.06694936, -0.06462681, 0.2494947, 0.963895;-0.07051068, -0.02336717, 0.3984592, 0.9141732;0.001539878, 0.04753364, 0.2417191, 0.9691802;0, 0, 0, 1;0, 0, 0, 1;0, 0, 0, 1;0, 0, 0, 1;0, 0, 0, 1;True;False;0;;Position (-0.06031204, 0.03290189, -0.2422964), Orientation(0.00052696, 0.3299529, 0.04372491, 0.9429841);1.105962;0, 0, 0, 1;0, 0, 0, 1;0.3753869, 0.4245841, -0.007778856, 0.8238644;0.2602303, 0.02433088, 0.125678, 0.9570231;-0.08270377, -0.0769617, -0.08406223, 0.9900357;0.08350593, 0.06501573, -0.05827406, 0.9926752;0.03068309, -0.01885559, 0.04328144, 0.9984136;-0.02585241, -0.007116061, 0.003292944, 0.999635;-0.016056, -0.02714872, -0.072034, 0.9969034;-0.009066326, -0.05146559, 0.05183575, 0.9972874;-0.01122823, -0.004378874, -0.001978267, 0.9999254;-0.03431955, -0.004611839, -0.09300701, 0.9950631;-0.05315936, -0.1231034, 0.04981349, 0.9897162;-0.03363252, -0.00278984, 0.00567602, 0.9994143;-0.003477462, 0.02917945, -0.02502854, 0.9992548;-0.207036, -0.1403428, 0.0183118, 0.9680417;0.09111304, 0.00407137, 0.02812923, 0.9954349;-0.03761665, -0.04293772, -0.01328605, 0.9982809;0.0006447434, 0.04917067, -0.02401883, 0.9985014;0, 0, 0, 1;0, 0, 0, 1;0, 0, 0, 1;0, 0, 0, 1;0, 0, 0, 1;True;False;0;
57.45;Position (-0.08918469, -0.3339537, -0.7501923), Orientation(0.1047251, 0.7321988, -0.6151745, 0.2729067);1.105962;0, 0, 0, 1;0, 0, 0, 1;0.4037706, 0.4094771, 0.01805031, 0.8179072;0.2636423, -0.109793, 0.08875441, 0.9542332;-0.08300265, -0.06155214, 0.09972657, 0.9896345;0.08010323, 0.05325174, 0.08331778, 0.9918699;0.0346474, -0.00998501, 0.2179084, 0.9753029;-0.02634178, -0.001295351, 0.2215844, 0.9747846;-0.01666928, -0.025206, 0.04832401, 0.9983746;-0.02146037, -0.05668779, 0.2782682, 0.958589;-0.01250143, -0.001380363, 0.2522177, 0.9675889;-0.04847803, 0.001635113, 0.05008401, 0.9975665;-0.07995561, -0.1030633, 0.3003495, 0.9448679;-0.04001838, 0.00842283, 0.3351245, 0.941286;-0.01345713, 0.02965292, 0.1894742, 0.9813456;-0.207036, -0.1403428, 0.0183118, 0.9680417;0.06694936, -0.06462681, 0.2494947, 0.963895;-0.07051068, -0.02336717, 0.3984592, 0.9141732;0.001539878, 0.04753364, 0.2417191, 0.9691802;0, 0, 0, 1;0, 0, 0, 1;0, 0, 0, 1;0, 0, 0, 1;0, 0, 0, 1;True;False;0;;Position (-0.06031204, 0.03290189, -0.2422964), Orientation(0.00052696, 0.3299529, 0.04372491, 0.9429841);1.105962;0, 0, 0, 1;0, 0, 0, 1;0.3753869, 0.4245841, -0.007778856, 0.8238644;0.2602303, 0.02433088, 0.125678, 0.9570231;-0.08270377, -0.0769617, -0.08406223, 0.9900357;0.08350593, 0.06501573, -0.05827406, 0.9926752;0.03068309, -0.01885559, 0.04328144, 0.9984136;-0.02585241, -0.007116061, 0.003292944, 0.999635;-0.016056, -0.02714872, -0.072034, 0.9969034;-0.009066326, -0.05146559, 0.05183575, 0.9972874;-0.01122823, -0.004378874, -0.001978267, 0.9999254;-0.03431955, -0.004611839, -0.09300701, 0.9950631;-0.05315936, -0.1231034, 0.04981349, 0.9897162;-0.03363252, -0.00278984, 0.00567602, 0.9994143;-0.003477462, 0.02917945, -0.02502854, 0.9992548;-0.207036, -0.1403428, 0.0183118, 0.9680417;0.09111304, 0.00407137, 0.02812923, 0.9954349;-0.03761665, -0.04293772, -0.01328605, 0.9982809;0.0006447434, 0.04917067, -0.02401883, 0.9985014;0, 0, 0, 1;0, 0, 0, 1;0, 0, 0, 1;0, 0, 0, 1;0, 0, 0, 1;True;False;0;
57.46;Position (-0.08918469, -0.3339537, -0.7501923), Orientation(0.1047251, 0.7321988, -0.6151745, 0.2729067);1.105962;0, 0, 0, 1;0, 0, 0, 1;0.4037706, 0.4094771, 0.01805031, 0.8179072;0.2636423, -0.109793, 0.08875441, 0.9542332;-0.08300265, -0.06155214, 0.09972657, 0.9896345;0.08010323, 0.05325174, 0.08331778, 0.9918699;0.0346474, -0.00998501, 0.2179084, 0.9753029;-0.02634178, -0.001295351, 0.2215844, 0.9747846;-0.01666928, -0.025206, 0.04832401, 0.9983746;-0.02146037, -0.05668779, 0.2782682, 0.958589;-0.01250143, -0.001380363, 0.2522177, 0.9675889;-0.04847803, 0.001635113, 0.05008401, 0.9975665;-0.07995561, -0.1030633, 0.3003495, 0.9448679;-0.04001838, 0.00842283, 0.3351245, 0.941286;-0.01345713, 0.02965292, 0.1894742, 0.9813456;-0.207036, -0.1403428, 0.0183118, 0.9680417;0.06694936, -0.06462681, 0.2494947, 0.963895;-0.07051068, -0.02336717, 0.3984592, 0.9141732;0.001539878, 0.04753364, 0.2417191, 0.9691802;0, 0, 0, 1;0, 0, 0, 1;0, 0, 0, 1;0, 0, 0, 1;0, 0, 0, 1;True;False;0;;Position (-0.06031204, 0.03290189, -0.2422964), Orientation(0.00052696, 0.3299529, 0.04372491, 0.9429841);1.105962;0, 0, 0, 1;0, 0, 0, 1;0.3753869, 0.4245841, -0.007778856, 0.8238644;0.2602303, 0.02433088, 0.125678, 0.9570231;-0.08270377, -0.0769617, -0.08406223, 0.9900357;0.08350593, 0.06501573, -0.05827406, 0.9926752;0.03068309, -0.01885559, 0.04328144, 0.9984136;-0.02585241, -0.007116061, 0.003292944, 0.999635;-0.016056, -0.02714872, -0.072034, 0.9969034;-0.009066326, -0.05146559, 0.05183575, 0.9972874;-0.01122823, -0.004378874, -0.001978267, 0.9999254;-0.03431955, -0.004611839, -0.09300701, 0.9950631;-0.05315936, -0.1231034, 0.04981349, 0.9897162;-0.03363252, -0.00278984, 0.00567602, 0.9994143;-0.003477462, 0.02917945, -0.02502854, 0.9992548;-0.207036, -0.1403428, 0.0183118, 0.9680417;0.09111304, 0.00407137, 0.02812923, 0.9954349;-0.03761665, -0.04293772, -0.01328605, 0.9982809;0.0006447434, 0.04917067, -0.02401883, 0.9985014;0, 0, 0, 1;0, 0, 0, 1;0, 0, 0, 1;0, 0, 0, 1;0, 0, 0, 1;True;False;0;
57.47;Position (-0.08918469, -0.3339537, -0.7501923), Orientation(0.1047251, 0.7321988, -0.6151745, 0.2729067);1.105962;0, 0, 0, 1;0, 0, 0, 1;0.4037706, 0.4094771, 0.01805031, 0.8179072;0.2636423, -0.109793, 0.08875441, 0.9542332;-0.08300265, -0.06155214, 0.09972657, 0.9896345;0.08010323, 0.05325174, 0.08331778, 0.9918699;0.0346474, -0.00998501, 0.2179084, 0.9753029;-0.02634178, -0.001295351, 0.2215844, 0.9747846;-0.01666928, -0.025206, 0.04832401, 0.9983746;-0.02146037, -0.05668779, 0.2782682, 0.958589;-0.01250143, -0.001380363, 0.2522177, 0.9675889;-0.04847803, 0.001635113, 0.05008401, 0.9975665;-0.07995561, -0.1030633, 0.3003495, 0.9448679;-0.04001838, 0.00842283, 0.3351245, 0.941286;-0.01345713, 0.02965292, 0.1894742, 0.9813456;-0.207036, -0.1403428, 0.0183118, 0.9680417;0.06694936, -0.06462681, 0.2494947, 0.963895;-0.07051068, -0.02336717, 0.3984592, 0.9141732;0.001539878, 0.04753364, 0.2417191, 0.9691802;0, 0, 0, 1;0, 0, 0, 1;0, 0, 0, 1;0, 0, 0, 1;0, 0, 0, 1;True;False;0;;Position (-0.06031204, 0.03290189, -0.2422964), Orientation(0.00052696, 0.3299529, 0.04372491, 0.9429841);1.105962;0, 0, 0, 1;0, 0, 0, 1;0.3753869, 0.4245841, -0.007778856, 0.8238644;0.2602303, 0.02433088, 0.125678, 0.9570231;-0.08270377, -0.0769617, -0.08406223, 0.9900357;0.08350593, 0.06501573, -0.05827406, 0.9926752;0.03068309, -0.01885559, 0.04328144, 0.9984136;-0.02585241, -0.007116061, 0.003292944, 0.999635;-0.016056, -0.02714872, -0.072034, 0.9969034;-0.009066326, -0.05146559, 0.05183575, 0.9972874;-0.01122823, -0.004378874, -0.001978267, 0.9999254;-0.03431955, -0.004611839, -0.09300701, 0.9950631;-0.05315936, -0.1231034, 0.04981349, 0.9897162;-0.03363252, -0.00278984, 0.00567602, 0.9994143;-0.003477462, 0.02917945, -0.02502854, 0.9992548;-0.207036, -0.1403428, 0.0183118, 0.9680417;0.09111304, 0.00407137, 0.02812923, 0.9954349;-0.03761665, -0.04293772, -0.01328605, 0.9982809;0.0006447434, 0.04917067, -0.02401883, 0.9985014;0, 0, 0, 1;0, 0, 0, 1;0, 0, 0, 1;0, 0, 0, 1;0, 0, 0, 1;True;False;0;
57.48;Position (-0.08303045, -0.3453401, -0.7573489), Orientation(0.1225227, 0.7966447, -0.5343678, 0.2545514);1.105962;0, 0, 0, 1;0, 0, 0, 1;0.4050625, 0.4087633, 0.01924059, 0.8175982;0.2636219, -0.1068226, 0.0895973, 0.9544972;-0.08297209, -0.06111419, 0.1045632, 0.9891649;0.07998563, 0.05290963, 0.08722661, 0.9915616;0.03086528, -0.03179682, 0.1455164, 0.988363;-0.02634225, -0.002640993, 0.1722797, 0.9846923;-0.01653958, -0.02572244, 0.01850823, 0.9993609;-0.022641, -0.05337592, 0.3131453, 0.9479339;-0.01285527, 0.003261668, 0.6001152, 0.7998037;-0.07269646, 0.0134683, 0.320398, 0.9443935;-0.08250774, -0.08799181, 0.3583733, 0.925753;-0.04193927, 0.01803044, 0.6085773, 0.7921804;-0.02287258, 0.02873872, 0.3965296, 0.9172869;-0.207036, -0.1403428, 0.0183118, 0.9680417;0.0754522, -0.0207697, 0.3099371, 0.9475307;-0.08257483, -0.01172299, 0.5825766, 0.8084853;0.002006447, 0.04505051, 0.3872031, 0.920891;0, 0, 0, 1;0, 0, 0, 1;0, 0, 0, 1;0, 0, 0, 1;0, 0, 0, 1;True;False;0;;Position (-0.06163719, 0.03391416, -0.2381039), Orientation(0.0004600212, 0.3271815, 0.0459572, 0.9438432);1.105962;0, 0, 0, 1;0, 0, 0, 1;0.3753869, 0.4245841, -0.007778856, 0.8238644;0.2602303, 0.02433088, 0.125678, 0.9570231;-0.08270377, -0.0769617, -0.08406223, 0.9900357;0.08350593, 0.06501573, -0.05827406, 0.9926752;0.03068309, -0.01885559, 0.04328144, 0.9984136;-0.02585241, -0.007116061, 0.003292944, 0.999635;-0.016056, -0.02714872, -0.072034, 0.9969034;-0.009066326, -0.05146559, 0.05183575, 0.9972874;-0.01122823, -0.004378874, -0.001978267, 0.9999254;-0.03431955, -0.004611839, -0.09300701, 0.9950631;-0.05315936, -0.1231034, 0.04981349, 0.9897162;-0.03363252, -0.00278984, 0.00567602, 0.9994143;-0.003477462, 0.02917945, -0.02502854, 0.9992548;-0.207036, -0.1403428, 0.0183118, 0.9680417;0.09111304, 0.00407137, 0.02812923, 0.9954349;-0.03761665, -0.04293772, -0.01328605, 0.9982809;0.0006447434, 0.04917067, -0.02401883, 0.9985014;0, 0, 0, 1;0, 0, 0, 1;0, 0, 0, 1;0, 0, 0, 1;0, 0, 0, 1;True;False;0;
57.49;Position (-0.07879978, -0.3531676, -0.7622685), Orientation(0.133912, 0.8355783, -0.4755263, 0.240315);1.105962;0, 0, 0, 1;0, 0, 0, 1;0.4059349, 0.40828, 0.02004506, 0.8173876;0.2636066, -0.1048085, 0.09016816, 0.9546708;-0.08295018, -0.06081534, 0.1078531, 0.9888319;0.07990505, 0.05267683, 0.08988038, 0.9913434;0.0301723, -0.04706983, 0.09502313, 0.9939038;-0.02630322, -0.003573735, 0.1377018, 0.990118;-0.01644054, -0.02606868, -0.002271883, 0.9995224;-0.02335589, -0.05110253, 0.3372191, 0.939748;-0.01244912, 0.005031248, 0.7174723, 0.6964577;-0.08334535, 0.01935882, 0.4545627, 0.8865955;-0.08339535, -0.07762443, 0.3978645, 0.9103425;-0.04142408, 0.02202215, 0.7189219, 0.6935059;-0.02818294, 0.02749104, 0.5158272, 0.8557876;-0.207036, -0.1403428, 0.0183118, 0.9680417;0.08441065, 0.008831223, 0.3509103, 0.9325551;-0.08829521, -0.004056111, 0.685782, 0.7224199;0.002287919, 0.04283836, 0.4780257, 0.8772976;0, 0, 0, 1;0, 0, 0, 1;0, 0, 0, 1;0, 0, 0, 1;0, 0, 0, 1;True;False;0;;Position (-0.06163719, 0.03391416, -0.2381039), Orientation(0.0004600212, 0.3271815, 0.0459572, 0.9438432);1.105962;0, 0, 0, 1;0, 0, 0, 1;0.3753869, 0.4245841, -0.007778856, 0.8238644;0.2602303, 0.02433088, 0.125678, 0.9570231;-0.08270377, -0.0769617, -0.08406223, 0.9900357;0.08350593, 0.06501573, -0.05827406, 0.9926752;0.03068309, -0.01885559, 0.04328144, 0.9984136;-0.02585241, -0.007116061, 0.003292944, 0.999635;-0.016056, -0.02714872, -0.072034, 0.9969034;-0.009066326, -0.05146559, 0.05183575, 0.9972874;-0.01122823, -0.004378874, -0.001978267, 0.9999254;-0.03431955, -0.004611839, -0.09300701, 0.9950631;-0.05315936, -0.1231034, 0.04981349, 0.9897162;-0.03363252, -0.00278984, 0.00567602, 0.9994143;-0.003477462, 0.02917945, -0.02502854, 0.9992548;-0.207036, -0.1403428, 0.0183118, 0.9680417;0.09111304, 0.00407137, 0.02812923, 0.9954349;-0.03761665, -0.04293772, -0.01328605, 0.9982809;0.0006447434, 0.04917067, -0.02401883, 0.9985014;0, 0, 0, 1;0, 0, 0, 1;0, 0, 0, 1;0, 0, 0, 1;0, 0, 0, 1;True;False;0;
57.5;Position (-0.077166, -0.3561904, -0.7641685), Orientation(0.1381159, 0.8494127, -0.452151, 0.2344817);1.105962;0, 0, 0, 1;0, 0, 0, 1;0.4062712, 0.4080934, 0.02035536, 0.817306;0.2636004, -0.1040288, 0.09038901, 0.9547369;-0.08294141, -0.06069894, 0.1091321, 0.9886994;0.07987364, 0.05258642, 0.09090976, 0.991257;0.03033836, -0.05314872, 0.07486903, 0.9953138;-0.02627859, -0.00394557, 0.1238248, 0.9919482;-0.01639898, -0.02620389, -0.01057552, 0.9994662;-0.02362144, -0.05021294, 0.3467914, 0.9362993;-0.01227602, 0.005517386, 0.7479769, 0.6635883;-0.08622202, 0.02106356, 0.4933326, 0.8653007;-0.08356066, -0.07354236, 0.4134287, 0.9037068;-0.04109511, 0.02311831, 0.7487566, 0.6611659;-0.02974568, 0.026997, 0.5513703, 0.833293;-0.207036, -0.1403428, 0.0183118, 0.9680417;0.08867592, 0.02040898, 0.3669842, 0.925766;-0.0899408, -0.001316865, 0.7194272, 0.6887187;0.00239023, 0.04186942, 0.5117445, 0.8581135;0, 0, 0, 1;0, 0, 0, 1;0, 0, 0, 1;0, 0, 0, 1;0, 0, 0, 1;True;False;0;;Position (-0.06163719, 0.03391416, -0.2381039), Orientation(0.0004600212, 0.3271815, 0.0459572, 0.9438432);1.105962;0, 0, 0, 1;0, 0, 0, 1;0.3753869, 0.4245841, -0.007778856, 0.8238644;0.2602303, 0.02433088, 0.125678, 0.9570231;-0.08270377, -0.0769617, -0.08406223, 0.9900357;0.08350593, 0.06501573, -0.05827406, 0.9926752;0.03068309, -0.01885559, 0.04328144, 0.9984136;-0.02585241, -0.007116061, 0.003292944, 0.999635;-0.016056, -0.02714872, -0.072034, 0.9969034;-0.009066326, -0.05146559, 0.05183575, 0.9972874;-0.01122823, -0.004378874, -0.001978267, 0.9999254;-0.03431955, -0.004611839, -0.09300701, 0.9950631;-0.05315936, -0.1231034, 0.04981349, 0.9897162;-0.03363252, -0.00278984, 0.00567602, 0.9994143;-0.003477462, 0.02917945, -0.02502854, 0.9992548;-0.207036, -0.1403428, 0.0183118, 0.9680417;0.09111304, 0.00407137, 0.02812923, 0.9954349;-0.03761665, -0.04293772, -0.01328605, 0.9982809;0.0006447434, 0.04917067, -0.02401883, 0.9985014;0, 0, 0, 1;0, 0, 0, 1;0, 0, 0, 1;0, 0, 0, 1;0, 0, 0, 1;True;False;0;
57.51;Position (-0.07161245, -0.3664654, -0.7706265), Orientation(0.151509, 0.8911788, -0.3705448, 0.2134055);1.105962;0, 0, 0, 1;0, 0, 0, 1;0.4074011, 0.4074654, 0.02139848, 0.8170303;0.2635781, -0.1014032, 0.09113215, 0.954955;-0.08291081, -0.06030576, 0.1134431, 0.9882408;0.07976715, 0.05228135, 0.09437744, 0.9909575;0.0325083, -0.07330864, 0.01232637, 0.9967031;-0.02616552, -0.005126828, 0.0793841, 0.9964875;-0.01625903, -0.02662255, -0.03702185, 0.9988275;-0.02435694, -0.04724136, 0.3777339, 0.9243875;-0.0120036, 0.00615514, 0.7867162, 0.6171676;-0.0901151, 0.0234767, 0.5481625, 0.8311715;-0.08307281, -0.06024123, 0.4615051, 0.8811827;-0.0404895, 0.02460126, 0.78872, 0.6129243;-0.0320545, 0.02614041, 0.6043186, 0.7956684;-0.207036, -0.1403428, 0.0183118, 0.9680417;0.1048101, 0.05623078, 0.416483, 0.9013296;-0.09207798, 0.00291607, 0.7681292, 0.633633;0.002617624, 0.03932967, 0.588337, 0.8076546;0, 0, 0, 1;0, 0, 0, 1;0, 0, 0, 1;0, 0, 0, 1;0, 0, 0, 1;True;False;0;;Position (-0.06163719, 0.03391416, -0.2381039), Orientation(0.0004600212, 0.3271815, 0.0459572, 0.9438432);1.105962;0, 0, 0, 1;0, 0, 0, 1;0.3753869, 0.4245841, -0.007778856, 0.8238644;0.2602303, 0.02433088, 0.125678, 0.9570231;-0.08270377, -0.0769617, -0.08406223, 0.9900357;0.08350593, 0.06501573, -0.05827406, 0.9926752;0.03068309, -0.01885559, 0.04328144, 0.9984136;-0.02585241, -0.007116061, 0.003292944, 0.999635;-0.016056, -0.02714872, -0.072034, 0.9969034;-0.009066326, -0.05146559, 0.05183575, 0.9972874;-0.01122823, -0.004378874, -0.001978267, 0.9999254;-0.03431955, -0.004611839, -0.09300701, 0.9950631;-0.05315936, -0.1231034, 0.04981349, 0.9897162;-0.03363252, -0.00278984, 0.00567602, 0.9994143;-0.003477462, 0.02917945, -0.02502854, 0.9992548;-0.207036, -0.1403428, 0.0183118, 0.9680417;0.09111304, 0.00407137, 0.02812923, 0.9954349;-0.03761665, -0.04293772, -0.01328605, 0.9982809;0.0006447434, 0.04917067, -0.02401883, 0.9985014;0, 0, 0, 1;0, 0, 0, 1;0, 0, 0, 1;0, 0, 0, 1;0, 0, 0, 1;True;False;0;
57.52;Position (-0.06823783, -0.366202, -0.7729737), Orientation(0.1530052, 0.8978016, -0.3619127, 0.1988996);1.105962;0, 0, 0, 1;0, 0, 0, 1;0.4467977, 0.3843982, 0.0584238, 0.8057275;0.2633535, -0.08204906, 0.09658235, 0.9563393;-0.08276302, -0.05861947, 0.1317678, 0.9860787;0.07961088, 0.05183743, 0.0994084, 0.9905014;0.02909645, -0.1248427, 0.06754378, 0.9894471;-0.02621417, -0.004683827, 0.09611429, 0.9950141;-0.01617477, -0.02685127, -0.05197996, 0.9981561;-0.02491971, -0.06410211, 0.3023956, 0.9506981;-0.01287376, 0.003120171, 0.5903364, 0.8070487;-0.08247833, 0.01885611, 0.4431244, 0.8924587;-0.07542349, -0.06871086, 0.3497143, 0.9312841;-0.04182531, 0.01984426, 0.6590164, 0.7507026;-0.02915986, 0.02718979, 0.5380203, 0.8419886;-0.207036, -0.1403428, 0.0183118, 0.9680417;0.1137263, 0.08990809, 0.3699222, 0.9176821;-0.08850416, -0.003726534, 0.6899189, 0.7184463;0.002502872, 0.04068351, 0.5493767, 0.83458;0, 0, 0, 1;0, 0, 0, 1;0, 0, 0, 1;0, 0, 0, 1;0, 0, 0, 1;True;False;0;;Position (-0.0625006, 0.03483991, -0.2338655), Orientation(-0.001105284, 0.3234374, 0.04834837, 0.945013);1.105962;0, 0, 0, 1;0, 0, 0, 1;0.3753869, 0.4245841, -0.007778856, 0.8238644;0.2602303, 0.02433088, 0.125678, 0.9570231;-0.08270377, -0.0769617, -0.08406223, 0.9900357;0.08350593, 0.06501573, -0.05827406, 0.9926752;0.03068309, -0.01885559, 0.04328144, 0.9984136;-0.02585241, -0.007116061, 0.003292944, 0.999635;-0.016056, -0.02714872, -0.072034, 0.9969034;-0.009066326, -0.05146559, 0.05183575, 0.9972874;-0.01122823, -0.004378874, -0.001978267, 0.9999254;-0.03431955, -0.004611839, -0.09300701, 0.9950631;-0.05315936, -0.1231034, 0.04981349, 0.9897162;-0.03363252, -0.00278984, 0.00567602, 0.9994143;-0.003477462, 0.02917945, -0.02502854, 0.9992548;-0.207036, -0.1403428, 0.0183118, 0.9680417;0.09111304, 0.00407137, 0.02812923, 0.9954349;-0.03761665, -0.04293772, -0.01328605, 0.9982809;0.0006447434, 0.04917067, -0.02401883, 0.9985014;0, 0, 0, 1;0, 0, 0, 1;0, 0, 0, 1;0, 0, 0, 1;0, 0, 0, 1;True;False;0;
57.53;Position (-0.06583542, -0.3661709, -0.7746825), Orientation(0.1541994, 0.9027386, -0.3545791, 0.1885718);1.105962;0, 0, 0, 1;0, 0, 0, 1;0.473488, 0.3673888, 0.08428082, 0.7960725;0.2631369, -0.06872147, 0.1003072, 0.9570657;-0.08264589, -0.05745748, 0.1442435, 0.9844096;0.0795021, 0.05153103, 0.1028706, 0.9901725;0.02565115, -0.1489705, 0.09156989, 0.9842585;-0.02622996, -0.00452315, 0.1021633, 0.9944115;-0.01613341, -0.02695795, -0.05909144, 0.9977581;-0.02446821, -0.07589295, 0.2574261, 0.9630023;-0.01295385, 0.001875305, 0.5019767, 0.8647822;-0.07944424, 0.01713257, 0.4038916, 0.9111897;-0.07108581, -0.07195646, 0.2905302, 0.9515048;-0.04194095, 0.01777759, 0.6015106, 0.797565;-0.02818265, 0.02749112, 0.5158205, 0.8557916;-0.207036, -0.1403428, 0.0183118, 0.9680417;0.1188212, 0.1122144, 0.3480203, 0.9231313;-0.08692557, -0.006109476, 0.6594579, 0.7466739;0.002475377, 0.04098529, 0.5401391, 0.8405736;0, 0, 0, 1;0, 0, 0, 1;0, 0, 0, 1;0, 0, 0, 1;0, 0, 0, 1;True;False;0;;Position (-0.0625006, 0.03483991, -0.2338655), Orientation(-0.001105284, 0.3234374, 0.04834837, 0.945013);1.105962;0, 0, 0, 1;0, 0, 0, 1;0.3753869, 0.4245841, -0.007778856, 0.8238644;0.2602303, 0.02433088, 0.125678, 0.9570231;-0.08270377, -0.0769617, -0.08406223, 0.9900357;0.08350593, 0.06501573, -0.05827406, 0.9926752;0.03068309, -0.01885559, 0.04328144, 0.9984136;-0.02585241, -0.007116061, 0.003292944, 0.999635;-0.016056, -0.02714872, -0.072034, 0.9969034;-0.009066326, -0.05146559, 0.05183575, 0.9972874;-0.01122823, -0.004378874, -0.001978267, 0.9999254;-0.03431955, -0.004611839, -0.09300701, 0.9950631;-0.05315936, -0.1231034, 0.04981349, 0.9897162;-0.03363252, -0.00278984, 0.00567602, 0.9994143;-0.003477462, 0.02917945, -0.02502854, 0.9992548;-0.207036, -0.1403428, 0.0183118, 0.9680417;0.09111304, 0.00407137, 0.02812923, 0.9954349;-0.03761665, -0.04293772, -0.01328605, 0.9982809;0.0006447434, 0.04917067, -0.02401883, 0.9985014;0, 0, 0, 1;0, 0, 0, 1;0, 0, 0, 1;0, 0, 0, 1;0, 0, 0, 1;True;False;0;
57.54;Position (-0.06489859, -0.3661813, -0.7753544), Orientation(0.1546802, 0.9046758, -0.3515407, 0.1845403);1.105962;0, 0, 0, 1;0, 0, 0, 1;0.483925, 0.3604074, 0.09457668, 0.7918197;0.2630377, -0.06346186, 0.1017709, 0.9573017;-0.08259632, -0.05699901, 0.1491327, 0.9837116;0.07945952, 0.05141166, 0.1042172, 0.9900414;0.0243003, -0.1567965, 0.09906541, 0.9823494;-0.02623412, -0.004479008, 0.1038233, 0.9942396;-0.01611982, -0.02699227, -0.06139775, 0.9976181;-0.02376687, -0.08068697, 0.2364078, 0.9680063;-0.01295074, 0.001535386, 0.4771446, 0.878728;-0.07854648, 0.01663241, 0.3925017, 0.9162403;-0.06892822, -0.07356973, 0.2607302, 0.9601334;-0.04193083, 0.01714527, 0.5838028, 0.8106308;-0.02792159, 0.0275675, 0.5099041, 0.859336;-0.207036, -0.1403428, 0.0183118, 0.9680417;0.1206669, 0.1207983, 0.3410022, 0.9244267;-0.08644484, -0.006791212, 0.6505074, 0.7545339;0.00247071, 0.04103572, 0.5385736, 0.841575;0, 0, 0, 1;0, 0, 0, 1;0, 0, 0, 1;0, 0, 0, 1;0, 0, 0, 1;True;False;0;;Position (-0.0625006, 0.03483991, -0.2338655), Orientation(-0.001105284, 0.3234374, 0.04834837, 0.945013);1.105962;0, 0, 0, 1;0, 0, 0, 1;0.3753869, 0.4245841, -0.007778856, 0.8238644;0.2602303, 0.02433088, 0.125678, 0.9570231;-0.08270377, -0.0769617, -0.08406223, 0.9900357;0.08350593, 0.06501573, -0.05827406, 0.9926752;0.03068309, -0.01885559, 0.04328144, 0.9984136;-0.02585241, -0.007116061, 0.003292944, 0.999635;-0.016056, -0.02714872, -0.072034, 0.9969034;-0.009066326, -0.05146559, 0.05183575, 0.9972874;-0.01122823, -0.004378874, -0.001978267, 0.9999254;-0.03431955, -0.004611839, -0.09300701, 0.9950631;-0.05315936, -0.1231034, 0.04981349, 0.9897162;-0.03363252, -0.00278984, 0.00567602, 0.9994143;-0.003477462, 0.02917945, -0.02502854, 0.9992548;-0.207036, -0.1403428, 0.0183118, 0.9680417;0.09111304, 0.00407137, 0.02812923, 0.9954349;-0.03761665, -0.04293772, -0.01328605, 0.9982809;0.0006447434, 0.04917067, -0.02401883, 0.9985014;0, 0, 0, 1;0, 0, 0, 1;0, 0, 0, 1;0, 0, 0, 1;0, 0, 0, 1;True;False;0;
57.55;Position (-0.05876828, -0.3573155, -0.7639858), Orientation(0.160014, 0.8922645, -0.3897248, 0.1624014);1.105962;0, 0, 0, 1;0, 0, 0, 1;0.5311918, 0.3262005, 0.1426533, 0.7688164;0.2629972, -0.06142638, 0.1023364, 0.9573852;-0.08252642, -0.05637997, 0.1557048, 0.9827343;0.07946363, 0.05142318, 0.1040872, 0.9900541;0.02025026, -0.1547722, 0.1325704, 0.9788057;-0.02620883, -0.00473601, 0.09414753, 0.9952019;-0.01609245, -0.02706029, -0.06599768, 0.997323;-0.0215963, -0.08601566, 0.1995414, 0.9758679;-0.01279082, -0.0001030139, 0.3533662, 0.9353977;-0.07407274, 0.01419892, 0.3370547, 0.9384592;-0.05943146, -0.08477415, 0.125846, 0.9866326;-0.04176764, 0.01511194, 0.5265357, 0.8489919;-0.0261016, 0.02805432, 0.4688144, 0.8824651;-0.207036, -0.1403428, 0.0183118, 0.9680417;0.117627, 0.1313277, 0.2937176, 0.9394929;-0.08483341, -0.008953716, 0.6214141, 0.7788246;0.002382986, 0.04194124, 0.5093437, 0.8595372;0, 0, 0, 1;0, 0, 0, 1;0, 0, 0, 1;0, 0, 0, 1;0, 0, 0, 1;True;False;0;;Position (-0.06298564, 0.03582122, -0.2296895), Orientation(-0.003954851, 0.3160405, 0.05050847, 0.947392);1.105962;0, 0, 0, 1;0, 0, 0, 1;0.3753869, 0.4245841, -0.007778856, 0.8238644;0.2602303, 0.02433088, 0.125678, 0.9570231;-0.08270377, -0.0769617, -0.08406223, 0.9900357;0.08350593, 0.06501573, -0.05827406, 0.9926752;0.03068309, -0.01885559, 0.04328144, 0.9984136;-0.02585241, -0.007116061, 0.003292944, 0.999635;-0.016056, -0.02714872, -0.072034, 0.9969034;-0.009066326, -0.05146559, 0.05183575, 0.9972874;-0.01122823, -0.004378874, -0.001978267, 0.9999254;-0.03431955, -0.004611839, -0.09300701, 0.9950631;-0.05315936, -0.1231034, 0.04981349, 0.9897162;-0.03363252, -0.00278984, 0.00567602, 0.9994143;-0.003477462, 0.02917945, -0.02502854, 0.9992548;-0.207036, -0.1403428, 0.0183118, 0.9680417;0.09111304, 0.00407137, 0.02812923, 0.9954349;-0.03761665, -0.04293772, -0.01328605, 0.9982809;0.0006447434, 0.04917067, -0.02401883, 0.9985014;0, 0, 0, 1;0, 0, 0, 1;0, 0, 0, 1;0, 0, 0, 1;0, 0, 0, 1;True;False;0;
57.56;Position (-0.05280119, -0.3489884, -0.7531748), Orientation(0.165045, 0.879425, -0.4238077, 0.1405668);1.105962;0, 0, 0, 1;0, 0, 0, 1;0.567136, 0.2969232, 0.1810401, 0.7466042;0.2629524, -0.05924328, 0.1029424, 0.9574702;-0.0824565, -0.0557886, 0.161952, 0.9817638;0.07946311, 0.05142169, 0.1041041, 0.9900525;0.01723173, -0.1533549, 0.1580896, 0.9752913;-0.0261791, -0.005009834, 0.08380991, 0.9961253;-0.01607705, -0.02709794, -0.06855983, 0.9971493;-0.0195841, -0.09066404, 0.169112, 0.9812226;-0.01243049, -0.001621436, 0.2326673, 0.9724756;-0.07084682, 0.01249847, 0.2982818, 0.9517629;-0.05111736, -0.09211671, 0.02229153, 0.9941855;-0.04129533, 0.01251616, 0.4527704, 0.8905825;-0.02492027, 0.02833002, 0.442282, 0.8960821;-0.207036, -0.1403428, 0.0183118, 0.9680417;0.1146372, 0.1461225, 0.2444817, 0.9517013;-0.08370873, -0.0103666, 0.6018234, 0.7941625;0.002335506, 0.04239976, 0.4936571, 0.8686194;0, 0, 0, 1;0, 0, 0, 1;0, 0, 0, 1;0, 0, 0, 1;0, 0, 0, 1;True;False;0;;Position (-0.06298564, 0.03582122, -0.2296895), Orientation(-0.003954851, 0.3160405, 0.05050847, 0.947392);1.105962;0, 0, 0, 1;0, 0, 0, 1;0.3753869, 0.4245841, -0.007778856, 0.8238644;0.2602303, 0.02433088, 0.125678, 0.9570231;-0.08270377, -0.0769617, -0.08406223, 0.9900357;0.08350593, 0.06501573, -0.05827406, 0.9926752;0.03068309, -0.01885559, 0.04328144, 0.9984136;-0.02585241, -0.007116061, 0.003292944, 0.999635;-0.016056, -0.02714872, -0.072034, 0.9969034;-0.009066326, -0.05146559, 0.05183575, 0.9972874;-0.01122823, -0.004378874, -0.001978267, 0.9999254;-0.03431955, -0.004611839, -0.09300701, 0.9950631;-0.05315936, -0.1231034, 0.04981349, 0.9897162;-0.03363252, -0.00278984, 0.00567602, 0.9994143;-0.003477462, 0.02917945, -0.02502854, 0.9992548;-0.207036, -0.1403428, 0.0183118, 0.9680417;0.09111304, 0.00407137, 0.02812923, 0.9954349;-0.03761665, -0.04293772, -0.01328605, 0.9982809;0.0006447434, 0.04917067, -0.02401883, 0.9985014;0, 0, 0, 1;0, 0, 0, 1;0, 0, 0, 1;0, 0, 0, 1;0, 0, 0, 1;True;False;0;
57.57;Position (-0.04855347, -0.3431949, -0.745592), Orientation(0.1685214, 0.8697977, -0.4466043, 0.1248879);1.105962;0, 0, 0, 1;0, 0, 0, 1;0.5892183, 0.2772656, 0.2055581, 0.730542;0.262918, -0.05760909, 0.1033955, 0.9575305;-0.08240505, -0.05536908, 0.1663654, 0.9810537;0.07946099, 0.05141576, 0.1041709, 0.9900458;0.01489298, -0.1525517, 0.1778361, 0.9720497;-0.02615506, -0.005213945, 0.07608497, 0.9967446;-0.01606986, -0.02711538, -0.06975059, 0.9970665;-0.0181556, -0.09377553, 0.1493601, 0.9841586;-0.01208161, -0.002615931, 0.1504306, 0.9885433;-0.06891938, 0.01150179, 0.2755455, 0.9587453;-0.04612483, -0.0957924, -0.03527507, 0.9937062;-0.0407442, 0.01050259, 0.3950902, 0.9176782;-0.02425113, 0.02847296, 0.4272987, 0.9033366;-0.207036, -0.1403428, 0.0183118, 0.9680417;0.1120199, 0.1579441, 0.2090905, 0.9585335;-0.08304413, -0.01116932, 0.5904853, 0.8026868;0.002312679, 0.0426127, 0.486148, 0.8728339;0, 0, 0, 1;0, 0, 0, 1;0, 0, 0, 1;0, 0, 0, 1;0, 0, 0, 1;True;False;0;;Position (-0.06298564, 0.03582122, -0.2296895), Orientation(-0.003954851, 0.3160405, 0.05050847, 0.947392);1.105962;0, 0, 0, 1;0, 0, 0, 1;0.3753869, 0.4245841, -0.007778856, 0.8238644;0.2602303, 0.02433088, 0.125678, 0.9570231;-0.08270377, -0.0769617, -0.08406223, 0.9900357;0.08350593, 0.06501573, -0.05827406, 0.9926752;0.03068309, -0.01885559, 0.04328144, 0.9984136;-0.02585241, -0.007116061, 0.003292944, 0.999635;-0.016056, -0.02714872, -0.072034, 0.9969034;-0.009066326, -0.05146559, 0.05183575, 0.9972874;-0.01122823, -0.004378874, -0.001978267, 0.9999254;-0.03431955, -0.004611839, -0.09300701, 0.9950631;-0.05315936, -0.1231034, 0.04981349, 0.9897162;-0.03363252, -0.00278984, 0.00567602, 0.9994143;-0.003477462, 0.02917945, -0.02502854, 0.9992548;-0.207036, -0.1403428, 0.0183118, 0.9680417;0.09111304, 0.00407137, 0.02812923, 0.9954349;-0.03761665, -0.04293772, -0.01328605, 0.9982809;0.0006447434, 0.04917067, -0.02401883, 0.9985014;0, 0, 0, 1;0, 0, 0, 1;0, 0, 0, 1;0, 0, 0, 1;0, 0, 0, 1;True;False;0;
57.58;Position (-0.04689842, -0.3409569, -0.7426538), Orientation(0.169848, 0.8659136, -0.4552399, 0.1187521);1.105962;0, 0, 0, 1;0, 0, 0, 1;0.5974309, 0.2695851, 0.2148834, 0.7240341;0.2629041, -0.05695903, 0.1035757, 0.9575538;-0.08238443, -0.05520428, 0.168095, 0.9807698;0.07945993, 0.0514128, 0.1042043, 0.9900426;0.01391462, -0.1522586, 0.1860883, 0.9705642;-0.02614502, -0.005295418, 0.0729969, 0.9969754;-0.01606753, -0.02712101, -0.07013571, 0.9970393;-0.01757884, -0.09496859, 0.1417859, 0.9851744;-0.01192317, -0.00299742, 0.1181901, 0.992915;-0.06825663, 0.01116219, 0.2677971, 0.9609897;-0.04462241, -0.09685618, -0.05195228, 0.9929395;-0.04046974, 0.009662844, 0.3709242, 0.9277306;-0.02401574, 0.02852104, 0.4220355, 0.9058123;-0.207036, -0.1403428, 0.0183118, 0.9680417;0.1107841, 0.1627684, 0.1947943, 0.9608791;-0.08280575, -0.01145189, 0.5864582, 0.8056543;0.002305124, 0.04268214, 0.4836669, 0.8742077;0, 0, 0, 1;0, 0, 0, 1;0, 0, 0, 1;0, 0, 0, 1;0, 0, 0, 1;True;False;0;;Position (-0.06298564, 0.03582122, -0.2296895), Orientation(-0.003954851, 0.3160405, 0.05050847, 0.947392);1.105962;0, 0, 0, 1;0, 0, 0, 1;0.3753869, 0.4245841, -0.007778856, 0.8238644;0.2602303, 0.02433088, 0.125678, 0.9570231;-0.08270377, -0.0769617, -0.08406223, 0.9900357;0.08350593, 0.06501573, -0.05827406, 0.9926752;0.03068309, -0.01885559, 0.04328144, 0.9984136;-0.02585241, -0.007116061, 0.003292944, 0.999635;-0.016056, -0.02714872, -0.072034, 0.9969034;-0.009066326, -0.05146559, 0.05183575, 0.9972874;-0.01122823, -0.004378874, -0.001978267, 0.9999254;-0.03431955, -0.004611839, -0.09300701, 0.9950631;-0.05315936, -0.1231034, 0.04981349, 0.9897162;-0.03363252, -0.00278984, 0.00567602, 0.9994143;-0.003477462, 0.02917945, -0.02502854, 0.9992548;-0.207036, -0.1403428, 0.0183118, 0.9680417;0.09111304, 0.00407137, 0.02812923, 0.9954349;-0.03761665, -0.04293772, -0.01328605, 0.9982809;0.0006447434, 0.04917067, -0.02401883, 0.9985014;0, 0, 0, 1;0, 0, 0, 1;0, 0, 0, 1;0, 0, 0, 1;0, 0, 0, 1;True;False;0;
57.59;Position (-0.04502233, -0.3392608, -0.7259668), Orientation(0.2030767, 0.8418525, -0.48967, 0.1013304);1.105962;0, 0, 0, 1;0, 0, 0, 1;0.5947696, 0.2720972, 0.2118485, 0.7261766;0.2631772, -0.07098204, 0.09967707, 0.9569556;-0.08240046, -0.05533222, 0.1667525, 0.9809904;0.07952145, 0.05158541, 0.1022567, 0.9902317;0.01521418, -0.1474936, 0.1811536, 0.9722127;-0.02606869, -0.0058574, 0.05162417, 0.9983091;-0.01606276, -0.0271325, -0.07092226, 0.9969834;-0.01734887, -0.0882575, 0.1468103, 0.9850668;-0.01153256, -0.003820789, 0.04723312, 0.9988101;-0.0631901, 0.008615175, 0.2096549, 0.9756934;-0.04639812, -0.09558822, -0.03221842, 0.9938169;-0.0395253, 0.007210156, 0.2999856, 0.9530973;-0.02309416, 0.02869855, 0.4014665, 0.9151327;-0.207036, -0.1403428, 0.0183118, 0.9680417;0.1075857, 0.1858752, 0.1543052, 0.9643991;-0.08227573, -0.01207044, 0.5775763, 0.8120902;0.002282223, 0.04288951, 0.4761603, 0.878309;0, 0, 0, 1;0, 0, 0, 1;0, 0, 0, 1;0, 0, 0, 1;0, 0, 0, 1;True;False;0;;Position (-0.06287055, 0.03692599, -0.225786), Orientation(-0.007820428, 0.3035761, 0.05147431, 0.9513837);1.105962;0, 0, 0, 1;0, 0, 0, 1;0.3753869, 0.4245841, -0.007778856, 0.8238644;0.2602303, 0.02433088, 0.125678, 0.9570231;-0.08270377, -0.0769617, -0.08406223, 0.9900357;0.08350593, 0.06501573, -0.05827406, 0.9926752;0.03068309, -0.01885559, 0.04328144, 0.9984136;-0.02585241, -0.007116061, 0.003292944, 0.999635;-0.016056, -0.02714872, -0.072034, 0.9969034;-0.009066326, -0.05146559, 0.05183575, 0.9972874;-0.01122823, -0.004378874, -0.001978267, 0.9999254;-0.03431955, -0.004611839, -0.09300701, 0.9950631;-0.05315936, -0.1231034, 0.04981349, 0.9897162;-0.03363252, -0.00278984, 0.00567602, 0.9994143;-0.003477462, 0.02917945, -0.02502854, 0.9992548;-0.207036, -0.1403428, 0.0183118, 0.9680417;0.09111304, 0.00407137, 0.02812923, 0.9954349;-0.03761665, -0.04293772, -0.01328605, 0.9982809;0.0006447434, 0.04917067, -0.02401883, 0.9985014;0, 0, 0, 1;0, 0, 0, 1;0, 0, 0, 1;0, 0, 0, 1;0, 0, 0, 1;True;False;0;
57.6;Position (-0.04362759, -0.3380484, -0.7142615), Orientation(0.2258792, 0.8236611, -0.5125412, 0.08867168);1.105962;0, 0, 0, 1;0, 0, 0, 1;0.5970003, 0.2699931, 0.2143914, 0.724383;0.2633188, -0.07969095, 0.09724309, 0.9564812;-0.08240591, -0.05537599, 0.1662929, 0.9810655;0.07956166, 0.05169853, 0.100979, 0.9903537;0.01596309, -0.144531, 0.1783581, 0.9731621;-0.02601094, -0.006231903, 0.03731109, 0.9989457;-0.01606052, -0.02713788, -0.07129067, 0.996957;-0.01699331, -0.08404026, 0.1478124, 0.9852919;-0.01138151, -0.004105348, 0.02225743, 0.9996791;-0.05930461, 0.006715737, 0.1662652, 0.9842733;-0.04647573, -0.09527012, -0.03162325, 0.993863;-0.03878925, 0.005590303, 0.2528554, 0.96671;-0.02250388, 0.02880347, 0.3883218, 0.9207987;-0.207036, -0.1403428, 0.0183118, 0.9680417;0.1044847, 0.2015879, 0.1273028, 0.9655253;-0.08191024, -0.01248954, 0.5715066, 0.8164037;0.002268857, 0.04300839, 0.4717886, 0.8806592;0, 0, 0, 1;0, 0, 0, 1;0, 0, 0, 1;0, 0, 0, 1;0, 0, 0, 1;True;False;0;;Position (-0.06287055, 0.03692599, -0.225786), Orientation(-0.007820428, 0.3035761, 0.05147431, 0.9513837);1.105962;0, 0, 0, 1;0, 0, 0, 1;0.3753869, 0.4245841, -0.007778856, 0.8238644;0.2602303, 0.02433088, 0.125678, 0.9570231;-0.08270377, -0.0769617, -0.08406223, 0.9900357;0.08350593, 0.06501573, -0.05827406, 0.9926752;0.03068309, -0.01885559, 0.04328144, 0.9984136;-0.02585241, -0.007116061, 0.003292944, 0.999635;-0.016056, -0.02714872, -0.072034, 0.9969034;-0.009066326, -0.05146559, 0.05183575, 0.9972874;-0.01122823, -0.004378874, -0.001978267, 0.9999254;-0.03431955, -0.004611839, -0.09300701, 0.9950631;-0.05315936, -0.1231034, 0.04981349, 0.9897162;-0.03363252, -0.00278984, 0.00567602, 0.9994143;-0.003477462, 0.02917945, -0.02502854, 0.9992548;-0.207036, -0.1403428, 0.0183118, 0.9680417;0.09111304, 0.00407137, 0.02812923, 0.9954349;-0.03761665, -0.04293772, -0.01328605, 0.9982809;0.0006447434, 0.04917067, -0.02401883, 0.9985014;0, 0, 0, 1;0, 0, 0, 1;0, 0, 0, 1;0, 0, 0, 1;0, 0, 0, 1;True;False;0;
57.61;Position (-0.0430717, -0.3375719, -0.7096933), Orientation(0.2346679, 0.8162593, -0.5212037, 0.08365762);1.105962;0, 0, 0, 1;0, 0, 0, 1;0.5986696, 0.2684081, 0.2163002, 0.7230256;0.2633676, -0.08304324, 0.09630357, 0.9562776;-0.08240708, -0.05538541, 0.1661938, 0.9810816;0.07957754, 0.05174329, 0.1004731, 0.9904016;0.01624383, -0.1433617, 0.1773382, 0.9735166;-0.02598504, -0.006389178, 0.0312833, 0.9991523;-0.01605979, -0.02713963, -0.07141121, 0.9969483;-0.01682052, -0.08241317, 0.1477825, 0.9854367;-0.01133791, -0.004184633, 0.01525564, 0.9998106;-0.05755833, 0.005875991, 0.1470745, 0.9874319;-0.04631869, -0.09523389, -0.03355461, 0.9938104;-0.03844537, 0.004892322, 0.232481, 0.9718285;-0.02227392, 0.02884254, 0.3832073, 0.9229432;-0.207036, -0.1403428, 0.0183118, 0.9680417;0.1029179, 0.2082867, 0.1158148, 0.9657182;-0.08176227, -0.01265755, 0.5690617, 0.818122;0.002263746, 0.04305341, 0.4701192, 0.8815494;0, 0, 0, 1;0, 0, 0, 1;0, 0, 0, 1;0, 0, 0, 1;0, 0, 0, 1;True;False;0;;Position (-0.06287055, 0.03692599, -0.225786), Orientation(-0.007820428, 0.3035761, 0.05147431, 0.9513837);1.105962;0, 0, 0, 1;0, 0, 0, 1;0.3753869, 0.4245841, -0.007778856, 0.8238644;0.2602303, 0.02433088, 0.125678, 0.9570231;-0.08270377, -0.0769617, -0.08406223, 0.9900357;0.08350593, 0.06501573, -0.05827406, 0.9926752;0.03068309, -0.01885559, 0.04328144, 0.9984136;-0.02585241, -0.007116061, 0.003292944, 0.999635;-0.016056, -0.02714872, -0.072034, 0.9969034;-0.009066326, -0.05146559, 0.05183575, 0.9972874;-0.01122823, -0.004378874, -0.001978267, 0.9999254;-0.03431955, -0.004611839, -0.09300701, 0.9950631;-0.05315936, -0.1231034, 0.04981349, 0.9897162;-0.03363252, -0.00278984, 0.00567602, 0.9994143;-0.003477462, 0.02917945, -0.02502854, 0.9992548;-0.207036, -0.1403428, 0.0183118, 0.9680417;0.09111304, 0.00407137, 0.02812923, 0.9954349;-0.03761665, -0.04293772, -0.01328605, 0.9982809;0.0006447434, 0.04917067, -0.02401883, 0.9985014;0, 0, 0, 1;0, 0, 0, 1;0, 0, 0, 1;0, 0, 0, 1;0, 0, 0, 1;True;False;0;
57.62;Position (-0.04103883, -0.3358945, -0.6939304), Orientation(0.2643931, 0.7897066, -0.5496565, 0.06586087);1.105962;0, 0, 0, 1;0, 0, 0, 1;0.6066651, 0.2606884, 0.2255146, 0.7163394;0.2635151, -0.09495237, 0.09295414, 0.9554598;-0.08240568, -0.05537411, 0.1663125, 0.9810622;0.07962885, 0.05188824, 0.09883352, 0.9905549;0.01706504, -0.1397126, 0.1744921, 0.974547;-0.02592581, -0.006728307, 0.01825139, 0.9994746;-0.01605828, -0.02714327, -0.07165988, 0.9969304;-0.01612871, -0.0772679, 0.1457299, 0.9861706;-0.01127486, -0.004297169, 0.005285036, 0.9999133;-0.05194844, 0.003232229, 0.08662499, 0.9948804;-0.04514069, -0.09541368, -0.04757584, 0.9932749;-0.03728389, 0.002736766, 0.1693115, 0.9848533;-0.02137284, 0.02898606, 0.3631988, 0.9310154;-0.207036, -0.1403428, 0.0183118, 0.9680417;0.09694177, 0.2263029, 0.07945018, 0.9659591;-0.08125953, -0.01322141, 0.5608064, 0.8238436;0.002248576, 0.04318583, 0.4651673, 0.8841659;0, 0, 0, 1;0, 0, 0, 1;0, 0, 0, 1;0, 0, 0, 1;0, 0, 0, 1;True;False;0;;Position (-0.06287055, 0.03692599, -0.225786), Orientation(-0.007820428, 0.3035761, 0.05147431, 0.9513837);1.105962;0, 0, 0, 1;0, 0, 0, 1;0.3753869, 0.4245841, -0.007778856, 0.8238644;0.2602303, 0.02433088, 0.125678, 0.9570231;-0.08270377, -0.0769617, -0.08406223, 0.9900357;0.08350593, 0.06501573, -0.05827406, 0.9926752;0.03068309, -0.01885559, 0.04328144, 0.9984136;-0.02585241, -0.007116061, 0.003292944, 0.999635;-0.016056, -0.02714872, -0.072034, 0.9969034;-0.009066326, -0.05146559, 0.05183575, 0.9972874;-0.01122823, -0.004378874, -0.001978267, 0.9999254;-0.03431955, -0.004611839, -0.09300701, 0.9950631;-0.05315936, -0.1231034, 0.04981349, 0.9897162;-0.03363252, -0.00278984, 0.00567602, 0.9994143;-0.003477462, 0.02917945, -0.02502854, 0.9992548;-0.207036, -0.1403428, 0.0183118, 0.9680417;0.09111304, 0.00407137, 0.02812923, 0.9954349;-0.03761665, -0.04293772, -0.01328605, 0.9982809;0.0006447434, 0.04917067, -0.02401883, 0.9985014;0, 0, 0, 1;0, 0, 0, 1;0, 0, 0, 1;0, 0, 0, 1;0, 0, 0, 1;True;False;0;
57.63;Position (-0.03765097, -0.3305224, -0.6736863), Orientation(0.2915452, 0.754641, -0.5858636, 0.04777174);1.105962;0, 0, 0, 1;0, 0, 0, 1;0.5930935, 0.2736678, 0.2099436, 0.7275093;0.2637097, -0.126275, 0.08405647, 0.9525998;-0.08249219, -0.0560872, 0.1588013, 0.9822584;0.07969696, 0.05208139, 0.09664578, 0.990755;0.01863376, -0.1248283, 0.1791158, 0.9756988;-0.02589275, -0.006906957, 0.01136732, 0.9995763;-0.01605738, -0.02714541, -0.07180692, 0.9969198;-0.0160418, -0.06435881, 0.1657623, 0.9839327;-0.01124852, -0.004343478, 0.001170788, 0.9999267;-0.04893414, 0.001843435, 0.05485126, 0.9972931;-0.05001017, -0.09016789, 0.007627043, 0.9946409;-0.03724294, 0.002665473, 0.1672159, 0.9852131;-0.02060693, 0.02909634, 0.3462323, 0.937471;-0.207036, -0.1403428, 0.0183118, 0.9680417;0.08422941, 0.2101152, 0.002741106, 0.9740377;-0.08054312, -0.01400719, 0.5491739, 0.8316999;0.002243283, 0.04323155, 0.4634422, 0.8850691;0, 0, 0, 1;0, 0, 0, 1;0, 0, 0, 1;0, 0, 0, 1;0, 0, 0, 1;True;False;0;;Position (-0.0617812, 0.03782462, -0.2223054), Orientation(-0.01293448, 0.2855298, 0.05218514, 0.9568607);1.105962;0, 0, 0, 1;0, 0, 0, 1;0.3753869, 0.4245841, -0.007778856, 0.8238644;0.2602303, 0.02433088, 0.125678, 0.9570231;-0.08270377, -0.0769617, -0.08406223, 0.9900357;0.08350593, 0.06501573, -0.05827406, 0.9926752;0.03068309, -0.01885559, 0.04328144, 0.9984136;-0.02585241, -0.007116061, 0.003292944, 0.999635;-0.016056, -0.02714872, -0.072034, 0.9969034;-0.009066326, -0.05146559, 0.05183575, 0.9972874;-0.01122823, -0.004378874, -0.001978267, 0.9999254;-0.03431955, -0.004611839, -0.09300701, 0.9950631;-0.05315936, -0.1231034, 0.04981349, 0.9897162;-0.03363252, -0.00278984, 0.00567602, 0.9994143;-0.003477462, 0.02917945, -0.02502854, 0.9992548;-0.207036, -0.1403428, 0.0183118, 0.9680417;0.09111304, 0.00407137, 0.02812923, 0.9954349;-0.03761665, -0.04293772, -0.01328605, 0.9982809;0.0006447434, 0.04917067, -0.02401883, 0.9985014;0, 0, 0, 1;0, 0, 0, 1;0, 0, 0, 1;0, 0, 0, 1;0, 0, 0, 1;True;False;0;
57.64;Position (-0.03522405, -0.3267512, -0.6593842), Orientation(0.3101654, 0.7283874, -0.6099554, 0.0346954);1.105962;0, 0, 0, 1;0, 0, 0, 1;0.5872039, 0.2791175, 0.2032886, 0.7320921;0.263676, -0.1485844, 0.0776406, 0.9499313;-0.08254304, -0.05652446, 0.1541739, 0.9829659;0.07974346, 0.05221372, 0.09514508, 0.9908896;0.0196521, -0.1155227, 0.1822206, 0.9762501;-0.02587781, -0.00698549, 0.008336998, 0.999606;-0.01605695, -0.02714645, -0.07187808, 0.9969147;-0.015485, -0.05507428, 0.1768968, 0.9825653;-0.0112389, -0.004360287, -0.000324216, 0.9999273;-0.04662889, 0.0007953678, 0.0308643, 0.998435;-0.05215907, -0.08704636, 0.03360407, 0.9942701;-0.03702557, 0.002291696, 0.1562224, 0.9870251;-0.02003385, 0.02917201, 0.3335608, 0.9420642;-0.207036, -0.1403428, 0.0183118, 0.9680417;0.07746454, 0.2026389, -0.04541745, 0.9751276;-0.07997847, -0.0146126, 0.5401086, 0.8376591;0.002239203, 0.04326666, 0.4621121, 0.8857626;0, 0, 0, 1;0, 0, 0, 1;0, 0, 0, 1;0, 0, 0, 1;0, 0, 0, 1;True;False;0;;Position (-0.0617812, 0.03782462, -0.2223054), Orientation(-0.01293448, 0.2855298, 0.05218514, 0.9568607);1.105962;0, 0, 0, 1;0, 0, 0, 1;0.3753869, 0.4245841, -0.007778856, 0.8238644;0.2602303, 0.02433088, 0.125678, 0.9570231;-0.08270377, -0.0769617, -0.08406223, 0.9900357;0.08350593, 0.06501573, -0.05827406, 0.9926752;0.03068309, -0.01885559, 0.04328144, 0.9984136;-0.02585241, -0.007116061, 0.003292944, 0.999635;-0.016056, -0.02714872, -0.072034, 0.9969034;-0.009066326, -0.05146559, 0.05183575, 0.9972874;-0.01122823, -0.004378874, -0.001978267, 0.9999254;-0.03431955, -0.004611839, -0.09300701, 0.9950631;-0.05315936, -0.1231034, 0.04981349, 0.9897162;-0.03363252, -0.00278984, 0.00567602, 0.9994143;-0.003477462, 0.02917945, -0.02502854, 0.9992548;-0.207036, -0.1403428, 0.0183118, 0.9680417;0.09111304, 0.00407137, 0.02812923, 0.9954349;-0.03761665, -0.04293772, -0.01328605, 0.9982809;0.0006447434, 0.04917067, -0.02401883, 0.9985014;0, 0, 0, 1;0, 0, 0, 1;0, 0, 0, 1;0, 0, 0, 1;0, 0, 0, 1;True;False;0;
57.65;Position (-0.03427217, -0.3252832, -0.6538034), Orientation(0.3172923, 0.7178116, -0.6190308, 0.02954727);1.105962;0, 0, 0, 1;0, 0, 0, 1;0.5853499, 0.2808111, 0.2012059, 0.7335031;0.2636216, -0.1575773, 0.07503574, 0.9487059;-0.08256124, -0.05668448, 0.1524762, 0.98322;0.07976126, 0.05226449, 0.09456883, 0.9909407;0.02002969, -0.1121336, 0.1834136, 0.9764141;-0.02587303, -0.007010321, 0.007378256, 0.9996135;-0.01605681, -0.02714679, -0.07190162, 0.996913;-0.01517372, -0.05134144, 0.1807982, 0.982062;-0.01123614, -0.004365105, -0.0007528354, 0.9999271;-0.04568776, 0.0003708726, 0.02114683, 0.9987319;-0.05283609, -0.08590416, 0.04210842, 0.9940099;-0.03691676, 0.00210741, 0.1507982, 0.9878728;-0.01979938, 0.02920131, 0.3283821, 0.9438858;-0.207036, -0.1403428, 0.0183118, 0.9680417;0.07505871, 0.2002212, -0.06373584, 0.97479;-0.07974102, -0.01486372, 0.5363222, 0.8401066;0.002237568, 0.04328067, 0.4615801, 0.8860394;0, 0, 0, 1;0, 0, 0, 1;0, 0, 0, 1;0, 0, 0, 1;0, 0, 0, 1;True;False;0;;Position (-0.0617812, 0.03782462, -0.2223054), Orientation(-0.01293448, 0.2855298, 0.05218514, 0.9568607);1.105962;0, 0, 0, 1;0, 0, 0, 1;0.3753869, 0.4245841, -0.007778856, 0.8238644;0.2602303, 0.02433088, 0.125678, 0.9570231;-0.08270377, -0.0769617, -0.08406223, 0.9900357;0.08350593, 0.06501573, -0.05827406, 0.9926752;0.03068309, -0.01885559, 0.04328144, 0.9984136;-0.02585241, -0.007116061, 0.003292944, 0.999635;-0.016056, -0.02714872, -0.072034, 0.9969034;-0.009066326, -0.05146559, 0.05183575, 0.9972874;-0.01122823, -0.004378874, -0.001978267, 0.9999254;-0.03431955, -0.004611839, -0.09300701, 0.9950631;-0.05315936, -0.1231034, 0.04981349, 0.9897162;-0.03363252, -0.00278984, 0.00567602, 0.9994143;-0.003477462, 0.02917945, -0.02502854, 0.9992548;-0.207036, -0.1403428, 0.0183118, 0.9680417;0.09111304, 0.00407137, 0.02812923, 0.9954349;-0.03761665, -0.04293772, -0.01328605, 0.9982809;0.0006447434, 0.04917067, -0.02401883, 0.9985014;0, 0, 0, 1;0, 0, 0, 1;0, 0, 0, 1;0, 0, 0, 1;0, 0, 0, 1;True;False;0;
57.66;Position (-0.03090429, -0.3201987, -0.6343422), Orientation(0.3415626, 0.6796714, -0.6490417, 0.01126546);1.105962;0, 0, 0, 1;0, 0, 0, 1;0.5815697, 0.2842329, 0.1969771, 0.7363345;0.2632742, -0.1872144, 0.06637445, 0.9440508;-0.08261641, -0.05718273, 0.1471757, 0.9839939;0.07982305, 0.05244124, 0.09256095, 0.9911159;0.02126303, -0.1013462, 0.1874049, 0.9768092;-0.02586387, -0.007057567, 0.00555346, 0.9996251;-0.0160565, -0.02714753, -0.07195207, 0.9969094;-0.01379397, -0.03848, 0.192056, 0.9805323;-0.01123187, -0.004372554, -0.001415797, 0.9999264;-0.0422614, -0.00115854, -0.01387421, 0.9990096;-0.05447873, -0.08239879, 0.06369385, 0.9930688;-0.03639472, 0.001247288, 0.1254462, 0.9914318;-0.01896426, 0.02929799, 0.3099635, 0.9501078;-0.207036, -0.1403428, 0.0183118, 0.9680417;0.06769501, 0.1947258, -0.1217287, 0.9709178;-0.07886381, -0.01577425, 0.5224614, 0.8488615;0.002231498, 0.04333253, 0.4596036, 0.8870637;0, 0, 0, 1;0, 0, 0, 1;0, 0, 0, 1;0, 0, 0, 1;0, 0, 0, 1;True;False;0;;Position (-0.0617812, 0.03782462, -0.2223054), Orientation(-0.01293448, 0.2855298, 0.05218514, 0.9568607);1.105962;0, 0, 0, 1;0, 0, 0, 1;0.3753869, 0.4245841, -0.007778856, 0.8238644;0.2602303, 0.02433088, 0.125678, 0.9570231;-0.08270377, -0.0769617, -0.08406223, 0.9900357;0.08350593, 0.06501573, -0.05827406, 0.9926752;0.03068309, -0.01885559, 0.04328144, 0.9984136;-0.02585241, -0.007116061, 0.003292944, 0.999635;-0.016056, -0.02714872, -0.072034, 0.9969034;-0.009066326, -0.05146559, 0.05183575, 0.9972874;-0.01122823, -0.004378874, -0.001978267, 0.9999254;-0.03431955, -0.004611839, -0.09300701, 0.9950631;-0.05315936, -0.1231034, 0.04981349, 0.9897162;-0.03363252, -0.00278984, 0.00567602, 0.9994143;-0.003477462, 0.02917945, -0.02502854, 0.9992548;-0.207036, -0.1403428, 0.0183118, 0.9680417;0.09111304, 0.00407137, 0.02812923, 0.9954349;-0.03761665, -0.04293772, -0.01328605, 0.9982809;0.0006447434, 0.04917067, -0.02401883, 0.9985014;0, 0, 0, 1;0, 0, 0, 1;0, 0, 0, 1;0, 0, 0, 1;0, 0, 0, 1;True;False;0;
57.67;Position (-0.02849024, -0.3166018, -0.6205159), Orientation(0.3581774, 0.6513205, -0.6689448, -0.001870647);1.105962;0, 0, 0, 1;0, 0, 0, 1;0.5796714, 0.2859353, 0.1948623, 0.7377336;0.2628938, -0.2071514, 0.06048103, 0.9403814;-0.0826521, -0.05751621, 0.1436159, 0.9844974;0.07986706, 0.05256751, 0.09112483, 0.9912387;0.02220095, -0.0935872, 0.1901875, 0.9770248;-0.02585975, -0.007078699, 0.004736998, 0.9996294;-0.01605635, -0.02714789, -0.07197689, 0.9969076;-0.01263985, -0.02951956, 0.1993018, 0.9794119;-0.01123023, -0.004375392, -0.001668336, 0.999926;-0.03976075, -0.002259359, -0.03909089, 0.9984418;-0.05540646, -0.08004295, 0.07675586, 0.9922862;-0.03596848, 0.000571975, 0.1055007, 0.9937683;-0.01836737, 0.02935985, 0.2968237, 0.9543042;-0.207036, -0.1403428, 0.0183118, 0.9680417;0.06335119, 0.1913835, -0.1585551, 0.9665503;-0.0782223, -0.01642392, 0.5124449, 0.8549923;0.002227042, 0.04337042, 0.4581531, 0.8878118;0, 0, 0, 1;0, 0, 0, 1;0, 0, 0, 1;0, 0, 0, 1;0, 0, 0, 1;True;False;0;;Position (-0.0617812, 0.03782462, -0.2223054), Orientation(-0.01293448, 0.2855298, 0.05218514, 0.9568607);1.105962;0, 0, 0, 1;0, 0, 0, 1;0.3753869, 0.4245841, -0.007778856, 0.8238644;0.2602303, 0.02433088, 0.125678, 0.9570231;-0.08270377, -0.0769617, -0.08406223, 0.9900357;0.08350593, 0.06501573, -0.05827406, 0.9926752;0.03068309, -0.01885559, 0.04328144, 0.9984136;-0.02585241, -0.007116061, 0.003292944, 0.999635;-0.016056, -0.02714872, -0.072034, 0.9969034;-0.009066326, -0.05146559, 0.05183575, 0.9972874;-0.01122823, -0.004378874, -0.001978267, 0.9999254;-0.03431955, -0.004611839, -0.09300701, 0.9950631;-0.05315936, -0.1231034, 0.04981349, 0.9897162;-0.03363252, -0.00278984, 0.00567602, 0.9994143;-0.003477462, 0.02917945, -0.02502854, 0.9992548;-0.207036, -0.1403428, 0.0183118, 0.9680417;0.09111304, 0.00407137, 0.02812923, 0.9954349;-0.03761665, -0.04293772, -0.01328605, 0.9982809;0.0006447434, 0.04917067, -0.02401883, 0.9985014;0, 0, 0, 1;0, 0, 0, 1;0, 0, 0, 1;0, 0, 0, 1;0, 0, 0, 1;True;False;0;
57.68;Position (-0.02586629, -0.3183105, -0.6180186), Orientation(0.3666883, 0.6481434, -0.6674049, 0.004555479);1.105962;0, 0, 0, 1;0, 0, 0, 1;0.5652794, 0.2985144, 0.1790131, 0.7478655;0.2621679, -0.2347915, 0.05222004, 0.9345663;-0.08278482, -0.05885021, 0.1292759, 0.986393;0.08002561, 0.05302564, 0.08590225, 0.9916678;0.02414124, -0.08180911, 0.1854217, 0.9789501;-0.02585658, -0.007094846, 0.004112979, 0.9996321;-0.01606691, -0.02712251, -0.07023781, 0.997032;-0.01139857, -0.02139174, 0.2016951, 0.9791483;-0.0112292, -0.0043772, -0.001829215, 0.9999257;-0.04137368, -0.001550787, -0.02285853, 0.998881;-0.05688084, -0.06679522, 0.1062497, 0.9904616;-0.03620618, 0.0009457577, 0.1165449, 0.9925249;-0.01751349, 0.0294381, 0.2780621, 0.9599522;-0.207036, -0.1403428, 0.0183118, 0.9680417;0.06939698, 0.1670202, -0.1537294, 0.9714195;-0.0758808, -0.01868981, 0.4766662, 0.8756039;0.002197428, 0.04361797, 0.4485341, 0.892698;0, 0, 0, 1;0, 0, 0, 1;0, 0, 0, 1;0, 0, 0, 1;0, 0, 0, 1;True;False;0;;Position (-0.05960073, 0.03799166, -0.2190067), Orientation(-0.02158508, 0.2637318, 0.05283231, 0.9629063);1.105962;0, 0, 0, 1;0, 0, 0, 1;0.3753869, 0.4245841, -0.007778856, 0.8238644;0.2602303, 0.02433088, 0.125678, 0.9570231;-0.08270377, -0.0769617, -0.08406223, 0.9900357;0.08350593, 0.06501573, -0.05827406, 0.9926752;0.03068309, -0.01885559, 0.04328144, 0.9984136;-0.02585241, -0.007116061, 0.003292944, 0.999635;-0.016056, -0.02714872, -0.072034, 0.9969034;-0.009066326, -0.05146559, 0.05183575, 0.9972874;-0.01122823, -0.004378874, -0.001978267, 0.9999254;-0.03431955, -0.004611839, -0.09300701, 0.9950631;-0.05315936, -0.1231034, 0.04981349, 0.9897162;-0.03363252, -0.00278984, 0.00567602, 0.9994143;-0.003477462, 0.02917945, -0.02502854, 0.9992548;-0.207036, -0.1403428, 0.0183118, 0.9680417;0.09111304, 0.00407137, 0.02812923, 0.9954349;-0.03761665, -0.04293772, -0.01328605, 0.9982809;0.0006447434, 0.04917067, -0.02401883, 0.9985014;0, 0, 0, 1;0, 0, 0, 1;0, 0, 0, 1;0, 0, 0, 1;0, 0, 0, 1;True;False;0;
57.69;Position (-0.0231494, -0.3196548, -0.6145097), Orientation(0.3762102, 0.642567, -0.6674492, 0.009228587);1.105962;0, 0, 0, 1;0, 0, 0, 1;0.553968, 0.3080146, 0.1667726, 0.7552704;0.261681, -0.2496472, 0.04773583, 0.9310857;-0.08290149, -0.06018964, 0.1147135, 0.9881019;0.08017801, 0.05347074, 0.08080987, 0.9920595;0.02602159, -0.06916269, 0.1817567, 0.9805631;-0.02585482, -0.007103803, 0.003766765, 0.9996334;-0.01607674, -0.02709869, -0.06861112, 0.9971458;-0.01001669, -0.0126066, 0.2049919, 0.9786313;-0.01122871, -0.004378045, -0.001904509, 0.9999256;-0.04133533, -0.001567696, -0.02324586, 0.9988737;-0.05745915, -0.05461222, 0.1311595, 0.9881869;-0.03611308, 0.0007985287, 0.112196, 0.9930294;-0.01662519, 0.02950698, 0.2585872, 0.965394;-0.207036, -0.1403428, 0.0183118, 0.9680417;0.07188012, 0.1482859, -0.1706892, 0.9714473;-0.07356316, -0.02078871, 0.4423188, 0.8935941;0.002171001, 0.04383285, 0.4399757, 0.8969367;0, 0, 0, 1;0, 0, 0, 1;0, 0, 0, 1;0, 0, 0, 1;0, 0, 0, 1;True;False;0;;Position (-0.05960073, 0.03799166, -0.2190067), Orientation(-0.02158508, 0.2637318, 0.05283231, 0.9629063);1.105962;0, 0, 0, 1;0, 0, 0, 1;0.3753869, 0.4245841, -0.007778856, 0.8238644;0.2602303, 0.02433088, 0.125678, 0.9570231;-0.08270377, -0.0769617, -0.08406223, 0.9900357;0.08350593, 0.06501573, -0.05827406, 0.9926752;0.03068309, -0.01885559, 0.04328144, 0.9984136;-0.02585241, -0.007116061, 0.003292944, 0.999635;-0.016056, -0.02714872, -0.072034, 0.9969034;-0.009066326, -0.05146559, 0.05183575, 0.9972874;-0.01122823, -0.004378874, -0.001978267, 0.9999254;-0.03431955, -0.004611839, -0.09300701, 0.9950631;-0.05315936, -0.1231034, 0.04981349, 0.9897162;-0.03363252, -0.00278984, 0.00567602, 0.9994143;-0.003477462, 0.02917945, -0.02502854, 0.9992548;-0.207036, -0.1403428, 0.0183118, 0.9680417;0.09111304, 0.00407137, 0.02812923, 0.9954349;-0.03761665, -0.04293772, -0.01328605, 0.9982809;0.0006447434, 0.04917067, -0.02401883, 0.9985014;0, 0, 0, 1;0, 0, 0, 1;0, 0, 0, 1;0, 0, 0, 1;0, 0, 0, 1;True;False;0;
57.7;Position (-0.02032842, -0.3207261, -0.6101617), Orientation(0.3866053, 0.6350025, -0.6686928, 0.01257627);1.105962;0, 0, 0, 1;0, 0, 0, 1;0.544189, 0.3159716, 0.1563337, 0.7613016;0.2613907, -0.2576358, 0.04531156, 0.9291101;-0.08300052, -0.06152075, 0.1000738, 0.9896017;0.08032661, 0.0539094, 0.07577324, 0.9924213;0.0278581, -0.05584683, 0.1787286, 0.9819171;-0.02585382, -0.007108898, 0.003569822, 0.9996341;-0.01608622, -0.02707556, -0.06703581, 0.9972534;-0.008488253, -0.003320486, 0.2088797, 0.9778989;-0.01122847, -0.004378455, -0.001941001, 0.9999255;-0.04050335, -0.001933784, -0.03163201, 0.9986767;-0.05762562, -0.04273673, 0.1595854, 0.9845737;-0.03586562, 0.0004123457, 0.1007807, 0.9942619;-0.01570677, 0.02956509, 0.238497, 0.970566;-0.207036, -0.1403428, 0.0183118, 0.9680417;0.07424164, 0.132013, -0.1888525, 0.9702554;-0.07126274, -0.02274983, 0.4091323, 0.9094036;0.002146211, 0.04402936, 0.4319704, 0.9008099;0, 0, 0, 1;0, 0, 0, 1;0, 0, 0, 1;0, 0, 0, 1;0, 0, 0, 1;True;False;0;;Position (-0.05960073, 0.03799166, -0.2190067), Orientation(-0.02158508, 0.2637318, 0.05283231, 0.9629063);1.105962;0, 0, 0, 1;0, 0, 0, 1;0.3753869, 0.4245841, -0.007778856, 0.8238644;0.2602303, 0.02433088, 0.125678, 0.9570231;-0.08270377, -0.0769617, -0.08406223, 0.9900357;0.08350593, 0.06501573, -0.05827406, 0.9926752;0.03068309, -0.01885559, 0.04328144, 0.9984136;-0.02585241, -0.007116061, 0.003292944, 0.999635;-0.016056, -0.02714872, -0.072034, 0.9969034;-0.009066326, -0.05146559, 0.05183575, 0.9972874;-0.01122823, -0.004378874, -0.001978267, 0.9999254;-0.03431955, -0.004611839, -0.09300701, 0.9950631;-0.05315936, -0.1231034, 0.04981349, 0.9897162;-0.03363252, -0.00278984, 0.00567602, 0.9994143;-0.003477462, 0.02917945, -0.02502854, 0.9992548;-0.207036, -0.1403428, 0.0183118, 0.9680417;0.09111304, 0.00407137, 0.02812923, 0.9954349;-0.03761665, -0.04293772, -0.01328605, 0.9982809;0.0006447434, 0.04917067, -0.02401883, 0.9985014;0, 0, 0, 1;0, 0, 0, 1;0, 0, 0, 1;0, 0, 0, 1;0, 0, 0, 1;True;False;0;
57.71;Position (-0.01826172, -0.321375, -0.6066808), Orientation(0.3944096, 0.6286858, -0.6700655, 0.01440012);1.105962;0, 0, 0, 1;0, 0, 0, 1;0.5377567, 0.321082, 0.1495363, 0.7650903;0.2612553, -0.2611867, 0.04423105, 0.9282084;-0.08306053, -0.06246968, 0.08953267, 0.9905465;0.08043143, 0.05422175, 0.07217582, 0.9926638;0.02914726, -0.04599047, 0.1767908, 0.9827412;-0.02585335, -0.007111285, 0.003477536, 0.9996344;-0.01609288, -0.02705923, -0.0659256, 0.9973277;-0.007306935, 0.00354719, 0.211859, 0.9772665;-0.01122838, -0.004378625, -0.001956098, 0.9999255;-0.03966185, -0.002302633, -0.04008233, 0.9984062;-0.05741662, -0.03430876, 0.1816887, 0.9810787;-0.0356396, 6.585965E-05, 0.09052898, 0.9952559;-0.01503277, 0.02959944, 0.223782, 0.9740738;-0.207036, -0.1403428, 0.0183118, 0.9680417;0.07686356, 0.1192246, -0.1964484, 0.9701987;-0.06960081, -0.0240994, 0.3856552, 0.9196985;0.002128907, 0.04416371, 0.4263933, 0.9034566;0, 0, 0, 1;0, 0, 0, 1;0, 0, 0, 1;0, 0, 0, 1;0, 0, 0, 1;True;False;0;;Position (-0.05960073, 0.03799166, -0.2190067), Orientation(-0.02158508, 0.2637318, 0.05283231, 0.9629063);1.105962;0, 0, 0, 1;0, 0, 0, 1;0.3753869, 0.4245841, -0.007778856, 0.8238644;0.2602303, 0.02433088, 0.125678, 0.9570231;-0.08270377, -0.0769617, -0.08406223, 0.9900357;0.08350593, 0.06501573, -0.05827406, 0.9926752;0.03068309, -0.01885559, 0.04328144, 0.9984136;-0.02585241, -0.007116061, 0.003292944, 0.999635;-0.016056, -0.02714872, -0.072034, 0.9969034;-0.009066326, -0.05146559, 0.05183575, 0.9972874;-0.01122823, -0.004378874, -0.001978267, 0.9999254;-0.03431955, -0.004611839, -0.09300701, 0.9950631;-0.05315936, -0.1231034, 0.04981349, 0.9897162;-0.03363252, -0.00278984, 0.00567602, 0.9994143;-0.003477462, 0.02917945, -0.02502854, 0.9992548;-0.207036, -0.1403428, 0.0183118, 0.9680417;0.09111304, 0.00407137, 0.02812923, 0.9954349;-0.03761665, -0.04293772, -0.01328605, 0.9982809;0.0006447434, 0.04917067, -0.02401883, 0.9985014;0, 0, 0, 1;0, 0, 0, 1;0, 0, 0, 1;0, 0, 0, 1;0, 0, 0, 1;True;False;0;
57.72;Position (-0.01752955, -0.317669, -0.6037081), Orientation(0.3829949, 0.638948, -0.6668578, 0.01900591);1.105962;0, 0, 0, 1;0, 0, 0, 1;0.5263655, 0.3299026, 0.1376272, 0.7714678;0.261151, -0.2638536, 0.0434183, 0.9275215;-0.08317415, -0.06494898, 0.06156365, 0.9925088;0.08067746, 0.05496466, 0.0635829, 0.9931904;0.03411987, -0.006361482, 0.1790346, 0.9832305;-0.02585297, -0.00711321, 0.00340312, 0.9996347;-0.01608526, -0.02707793, -0.06719677, 0.9972425;-0.003092225, 0.02411953, 0.2346995, 0.9717638;-0.01132717, -0.004203985, 0.01354388, 0.9998354;-0.04242591, -0.001085669, -0.01220522, 0.9990245;-0.05807246, -0.03517238, 0.1966517, 0.97812;-0.03606578, 0.0007241386, 0.109998, 0.993277;-0.01544198, 0.02957942, 0.232713, 0.9719729;-0.207036, -0.1403428, 0.0183118, 0.9680417;0.07950363, 0.1074157, -0.2015941, 0.9703098;-0.0639661, -0.0283154, 0.3087227, 0.9485763;0.002016029, 0.04498503, 0.3902525, 0.9196061;0, 0, 0, 1;0, 0, 0, 1;0, 0, 0, 1;0, 0, 0, 1;0, 0, 0, 1;True;False;0;;Position (-0.05655451, 0.03759176, -0.2153937), Orientation(-0.03246035, 0.2402522, 0.05394508, 0.9686667);1.105962;0, 0, 0, 1;0, 0, 0, 1;0.3753869, 0.4245841, -0.007778856, 0.8238644;0.2602303, 0.02433088, 0.125678, 0.9570231;-0.08270377, -0.0769617, -0.08406223, 0.9900357;0.08350593, 0.06501573, -0.05827406, 0.9926752;0.03068309, -0.01885559, 0.04328144, 0.9984136;-0.02585241, -0.007116061, 0.003292944, 0.999635;-0.016056, -0.02714872, -0.072034, 0.9969034;-0.009066326, -0.05146559, 0.05183575, 0.9972874;-0.01122823, -0.004378874, -0.001978267, 0.9999254;-0.03431955, -0.004611839, -0.09300701, 0.9950631;-0.05315936, -0.1231034, 0.04981349, 0.9897162;-0.03363252, -0.00278984, 0.00567602, 0.9994143;-0.003477462, 0.02917945, -0.02502854, 0.9992548;-0.207036, -0.1403428, 0.0183118, 0.9680417;0.09111304, 0.00407137, 0.02812923, 0.9954349;-0.03761665, -0.04293772, -0.01328605, 0.9982809;0.0006447434, 0.04917067, -0.02401883, 0.9985014;0, 0, 0, 1;0, 0, 0, 1;0, 0, 0, 1;0, 0, 0, 1;0, 0, 0, 1;True;False;0;
57.73;Position (-0.01681925, -0.3144992, -0.6008982), Orientation(0.3738219, 0.6468095, -0.6643655, 0.02265373);1.105962;0, 0, 0, 1;0, 0, 0, 1;0.5123353, 0.340383, 0.1231738, 0.7787684;0.2610928, -0.2653186, 0.04297144, 0.9271408;-0.083222, -0.06739571, 0.0333256, 0.9936908;0.08092005, 0.05571146, 0.05489174, 0.9936473;0.03909153, 0.03314977, 0.1807024, 0.9822015;-0.02585275, -0.007114343, 0.003359324, 0.9996348;-0.01608021, -0.02709025, -0.06803536, 0.9971854;0.002147137, 0.04431568, 0.2590734, 0.9648381;-0.01140653, -0.004059296, 0.02631561, 0.9995804;-0.04386795, -0.0004445243, 0.002477534, 0.9990342;-0.0585672, -0.03399551, 0.2153152, 0.9741938;-0.03622182, 0.0009705957, 0.1172784, 0.9924378;-0.01551544, 0.02957555, 0.2343174, 0.9715863;-0.207036, -0.1403428, 0.0183118, 0.9680417;0.08288355, 0.09318218, -0.2048414, 0.970818;-0.05840831, -0.03201751, 0.2362227, 0.9694133;0.001892183, 0.04578312, 0.3510411, 0.9352382;0, 0, 0, 1;0, 0, 0, 1;0, 0, 0, 1;0, 0, 0, 1;0, 0, 0, 1;True;False;0;;Position (-0.05655451, 0.03759176, -0.2153937), Orientation(-0.03246035, 0.2402522, 0.05394508, 0.9686667);1.105962;0, 0, 0, 1;0, 0, 0, 1;0.3753869, 0.4245841, -0.007778856, 0.8238644;0.2602303, 0.02433088, 0.125678, 0.9570231;-0.08270377, -0.0769617, -0.08406223, 0.9900357;0.08350593, 0.06501573, -0.05827406, 0.9926752;0.03068309, -0.01885559, 0.04328144, 0.9984136;-0.02585241, -0.007116061, 0.003292944, 0.999635;-0.016056, -0.02714872, -0.072034, 0.9969034;-0.009066326, -0.05146559, 0.05183575, 0.9972874;-0.01122823, -0.004378874, -0.001978267, 0.9999254;-0.03431955, -0.004611839, -0.09300701, 0.9950631;-0.05315936, -0.1231034, 0.04981349, 0.9897162;-0.03363252, -0.00278984, 0.00567602, 0.9994143;-0.003477462, 0.02917945, -0.02502854, 0.9992548;-0.207036, -0.1403428, 0.0183118, 0.9680417;0.09111304, 0.00407137, 0.02812923, 0.9954349;-0.03761665, -0.04293772, -0.01328605, 0.9982809;0.0006447434, 0.04917067, -0.02401883, 0.9985014;0, 0, 0, 1;0, 0, 0, 1;0, 0, 0, 1;0, 0, 0, 1;0, 0, 0, 1;True;False;0;
57.74;Position (-0.01594423, -0.3117762, -0.5976417), Orientation(0.367823, 0.6512073, -0.6633344, 0.02495696);1.105962;0, 0, 0, 1;0, 0, 0, 1;0.5016845, 0.3480714, 0.1123514, 0.7839236;0.2610663, -0.2659788, 0.04276995, 0.9269685;-0.08321607, -0.06904452, 0.01391837, 0.9940394;0.0810874, 0.05623553, 0.04876053, 0.993924;0.04243135, 0.05970886, 0.1815799, 0.9806443;-0.02585265, -0.007114886, 0.003338398, 0.999635;-0.01607758, -0.02709666, -0.06847227, 0.9971554;0.006388224, 0.05815135, 0.2759079, 0.9594022;-0.01145742, -0.003964337, 0.03466382, 0.9993255;-0.04454096, -0.0001437952, 0.009363547, 0.9989637;-0.05881951, -0.03243887, 0.2298111, 0.9709145;-0.03626034, 0.001031896, 0.1190885, 0.9922209;-0.0154619, 0.02957838, 0.2331482, 0.9718683;-0.207036, -0.1403428, 0.0183118, 0.9680417;0.08550617, 0.08228216, -0.2066204, 0.9711984;-0.05460399, -0.0343326, 0.1882199, 0.9800066;0.001806496, 0.04627672, 0.3241619, 0.9448673;0, 0, 0, 1;0, 0, 0, 1;0, 0, 0, 1;0, 0, 0, 1;0, 0, 0, 1;True;False;0;;Position (-0.05655451, 0.03759176, -0.2153937), Orientation(-0.03246035, 0.2402522, 0.05394508, 0.9686667);1.105962;0, 0, 0, 1;0, 0, 0, 1;0.3753869, 0.4245841, -0.007778856, 0.8238644;0.2602303, 0.02433088, 0.125678, 0.9570231;-0.08270377, -0.0769617, -0.08406223, 0.9900357;0.08350593, 0.06501573, -0.05827406, 0.9926752;0.03068309, -0.01885559, 0.04328144, 0.9984136;-0.02585241, -0.007116061, 0.003292944, 0.999635;-0.016056, -0.02714872, -0.072034, 0.9969034;-0.009066326, -0.05146559, 0.05183575, 0.9972874;-0.01122823, -0.004378874, -0.001978267, 0.9999254;-0.03431955, -0.004611839, -0.09300701, 0.9950631;-0.05315936, -0.1231034, 0.04981349, 0.9897162;-0.03363252, -0.00278984, 0.00567602, 0.9994143;-0.003477462, 0.02917945, -0.02502854, 0.9992548;-0.207036, -0.1403428, 0.0183118, 0.9680417;0.09111304, 0.00407137, 0.02812923, 0.9954349;-0.03761665, -0.04293772, -0.01328605, 0.9982809;0.0006447434, 0.04917067, -0.02401883, 0.9985014;0, 0, 0, 1;0, 0, 0, 1;0, 0, 0, 1;0, 0, 0, 1;0, 0, 0, 1;True;False;0;
57.75;Position (-0.01554649, -0.3106369, -0.5961785), Orientation(0.365537, 0.6527649, -0.6630339, 0.02582139);1.105962;0, 0, 0, 1;0, 0, 0, 1;0.4972478, 0.3512088, 0.1078798, 0.7859765;0.2610577, -0.2661916, 0.042705, 0.9269128;-0.08320497, -0.06969132, 0.00621818, 0.9940732;0.08115308, 0.05644333, 0.04632198, 0.9940235;0.04374463, 0.07016529, 0.181874, 0.9798394;-0.02585261, -0.007115064, 0.003331467, 0.9996349;-0.01607667, -0.02709887, -0.0686231, 0.9971449;0.008211386, 0.06359667, 0.2826079, 0.9570897;-0.01147647, -0.003928337, 0.03782175, 0.9992109;-0.04476154, -4.502258E-05, 0.01162507, 0.9989301;-0.05890077, -0.03172231, 0.2357997, 0.9694962;-0.03626697, 0.001042473, 0.1194007, 0.9921831;-0.01542733, 0.02958018, 0.2323932, 0.9720496;-0.207036, -0.1403428, 0.0183118, 0.9680417;0.08658987, 0.07778667, -0.2072665, 0.9713353;-0.05308815, -0.03521058, 0.1694225, 0.9834825;0.001772151, 0.04646178, 0.313443, 0.948468;0, 0, 0, 1;0, 0, 0, 1;0, 0, 0, 1;0, 0, 0, 1;0, 0, 0, 1;True;False;0;;Position (-0.05655451, 0.03759176, -0.2153937), Orientation(-0.03246035, 0.2402522, 0.05394508, 0.9686667);1.105962;0, 0, 0, 1;0, 0, 0, 1;0.3753869, 0.4245841, -0.007778856, 0.8238644;0.2602303, 0.02433088, 0.125678, 0.9570231;-0.08270377, -0.0769617, -0.08406223, 0.9900357;0.08350593, 0.06501573, -0.05827406, 0.9926752;0.03068309, -0.01885559, 0.04328144, 0.9984136;-0.02585241, -0.007116061, 0.003292944, 0.999635;-0.016056, -0.02714872, -0.072034, 0.9969034;-0.009066326, -0.05146559, 0.05183575, 0.9972874;-0.01122823, -0.004378874, -0.001978267, 0.9999254;-0.03431955, -0.004611839, -0.09300701, 0.9950631;-0.05315936, -0.1231034, 0.04981349, 0.9897162;-0.03363252, -0.00278984, 0.00567602, 0.9994143;-0.003477462, 0.02917945, -0.02502854, 0.9992548;-0.207036, -0.1403428, 0.0183118, 0.9680417;0.09111304, 0.00407137, 0.02812923, 0.9954349;-0.03761665, -0.04293772, -0.01328605, 0.9982809;0.0006447434, 0.04917067, -0.02401883, 0.9985014;0, 0, 0, 1;0, 0, 0, 1;0, 0, 0, 1;0, 0, 0, 1;0, 0, 0, 1;True;False;0;
57.76;Position (-0.01419294, -0.3043812, -0.5867093), Orientation(0.3623949, 0.6527264, -0.664762, 0.0266418);1.105962;0, 0, 0, 1;0, 0, 0, 1;0.4953847, 0.352515, 0.1060083, 0.7868224;0.2610406, -0.2666148, 0.04257578, 0.9268018;-0.08317973, -0.07063124, -0.005061336, 0.9940155;0.08133399, 0.05702202, 0.03950819, 0.9942698;0.04328876, 0.08577515, 0.1627252, 0.9819823;-0.02585355, -0.00711026, 0.003517174, 0.9996343;-0.01607301, -0.02710774, -0.06922878, 0.9971029;0.007694934, 0.05924721, 0.2910008, 0.9548556;-0.01142561, -0.004023905, 0.02943006, 0.9994935;-0.04461221, -0.0001119012, 0.0100938, 0.9989534;-0.06580259, -0.04883015, 0.2984176, 0.9509114;-0.03691567, 0.002105559, 0.1507437, 0.9878812;-0.01611758, 0.02954073, 0.2474778, 0.968309;-0.207036, -0.1403428, 0.0183118, 0.9680417;0.09085919, 0.05967095, -0.193565, 0.9750471;-0.05697223, -0.03291086, 0.2179582, 0.9737379;0.001776446, 0.04643904, 0.3147816, 0.9480258;0, 0, 0, 1;0, 0, 0, 1;0, 0, 0, 1;0, 0, 0, 1;0, 0, 0, 1;True;False;0;;Position (-0.05315704, 0.03697173, -0.2112371), Orientation(-0.04239692, 0.2160336, 0.0553426, 0.9738938);1.105962;0, 0, 0, 1;0, 0, 0, 1;0.3753869, 0.4245841, -0.007778856, 0.8238644;0.2602303, 0.02433088, 0.125678, 0.9570231;-0.08270377, -0.0769617, -0.08406223, 0.9900357;0.08350593, 0.06501573, -0.05827406, 0.9926752;0.03068309, -0.01885559, 0.04328144, 0.9984136;-0.02585241, -0.007116061, 0.003292944, 0.999635;-0.016056, -0.02714872, -0.072034, 0.9969034;-0.009066326, -0.05146559, 0.05183575, 0.9972874;-0.01122823, -0.004378874, -0.001978267, 0.9999254;-0.03431955, -0.004611839, -0.09300701, 0.9950631;-0.05315936, -0.1231034, 0.04981349, 0.9897162;-0.03363252, -0.00278984, 0.00567602, 0.9994143;-0.003477462, 0.02917945, -0.02502854, 0.9992548;-0.207036, -0.1403428, 0.0183118, 0.9680417;0.09111304, 0.00407137, 0.02812923, 0.9954349;-0.03761665, -0.04293772, -0.01328605, 0.9982809;0.0006447434, 0.04917067, -0.02401883, 0.9985014;0, 0, 0, 1;0, 0, 0, 1;0, 0, 0, 1;0, 0, 0, 1;0, 0, 0, 1;True;False;0;
57.77;Position (-0.01075611, -0.2898955, -0.561988), Orientation(0.3640583, 0.6431209, -0.6732346, 0.02474329);1.105962;0, 0, 0, 1;0, 0, 0, 1;0.4918382, 0.3549835, 0.1024559, 0.7884066;0.2610309, -0.2668557, 0.04250222, 0.9267387;-0.0831362, -0.07173002, -0.01838657, 0.9937833;0.08151466, 0.05760972, 0.03255421, 0.9944732;0.04240842, 0.104341, 0.1431739, 0.983268;-0.02585524, -0.007101731, 0.003846865, 0.9996331;-0.01607022, -0.02711452, -0.06969177, 0.9970706;0.008306754, 0.05904957, 0.300591, 0.9518871;-0.0113972, -0.004076533, 0.02479742, 0.9996192;-0.04442205, -0.0001970033, 0.008145244, 0.9989797;-0.0740724, -0.06312888, 0.3545724, 0.9299497;-0.03732894, 0.002815509, 0.1716256, 0.9844508;-0.01656348, 0.02951131, 0.2572358, 0.965756;-0.207036, -0.1403428, 0.0183118, 0.9680417;0.09467693, 0.04142273, -0.185324, 0.9772285;-0.058191, -0.03215426, 0.2334473, 0.970094;0.00176362, 0.04650666, 0.3107848, 0.9493403;0, 0, 0, 1;0, 0, 0, 1;0, 0, 0, 1;0, 0, 0, 1;0, 0, 0, 1;True;False;0;;Position (-0.05315704, 0.03697173, -0.2112371), Orientation(-0.04239692, 0.2160336, 0.0553426, 0.9738938);1.105962;0, 0, 0, 1;0, 0, 0, 1;0.3753869, 0.4245841, -0.007778856, 0.8238644;0.2602303, 0.02433088, 0.125678, 0.9570231;-0.08270377, -0.0769617, -0.08406223, 0.9900357;0.08350593, 0.06501573, -0.05827406, 0.9926752;0.03068309, -0.01885559, 0.04328144, 0.9984136;-0.02585241, -0.007116061, 0.003292944, 0.999635;-0.016056, -0.02714872, -0.072034, 0.9969034;-0.009066326, -0.05146559, 0.05183575, 0.9972874;-0.01122823, -0.004378874, -0.001978267, 0.9999254;-0.03431955, -0.004611839, -0.09300701, 0.9950631;-0.05315936, -0.1231034, 0.04981349, 0.9897162;-0.03363252, -0.00278984, 0.00567602, 0.9994143;-0.003477462, 0.02917945, -0.02502854, 0.9992548;-0.207036, -0.1403428, 0.0183118, 0.9680417;0.09111304, 0.00407137, 0.02812923, 0.9954349;-0.03761665, -0.04293772, -0.01328605, 0.9982809;0.0006447434, 0.04917067, -0.02401883, 0.9985014;0, 0, 0, 1;0, 0, 0, 1;0, 0, 0, 1;0, 0, 0, 1;0, 0, 0, 1;True;False;0;
