C:\Users\BIOMETRICS\Desktop\testRecordingTrigger.c3d



Time(ms):	EMG 9(uV):	

0.0	4.0284	
0.5	0.6043	
1.0	-11.0780	
1.5	-9.6681	
2.0	5.2369	
2.5	-3.6255	
3.0	10.8766	
3.5	-2.6184	
4.0	3.4241	
4.5	3.0213	
5.0	5.8412	
5.5	-6.8482	
6.0	-6.0426	
6.5	-2.8199	
7.0	1.8128	
7.5	3.6255	
8.0	5.0355	
8.5	4.6326	
9.0	-7.0497	
9.5	-3.8270	
10.0	-2.4170	
10.5	-8.4596	
11.0	-19.7391	
11.5	1.4099	
12.0	-3.6255	
12.5	-0.8057	
13.0	-2.2156	
13.5	0.2014	
14.0	-2.4170	
14.5	1.4099	
15.0	-0.6043	
15.5	-1.4099	
16.0	-1.8128	
16.5	1.8128	
17.0	-12.4880	
17.5	-6.0426	
18.0	2.6184	
18.5	-2.6184	
19.0	-6.0426	
19.5	11.0780	
20.0	5.8412	
20.5	3.8270	
21.0	1.4099	
21.5	-2.4170	
22.0	7.0497	
22.5	10.6752	
23.0	-1.4099	
23.5	-3.4241	
24.0	-10.6752	
24.5	-8.6610	
25.0	-14.9050	
25.5	-23.5660	
26.0	-8.8624	
26.5	-8.0568	
27.0	2.6184	
27.5	-1.4099	
28.0	-4.0284	
28.5	-8.6610	
29.0	8.8624	
29.5	-5.4383	
30.0	-7.6539	
30.5	-18.3291	
31.0	-4.2298	
31.5	-20.1419	
32.0	-9.2653	
32.5	5.2369	
33.0	1.2085	
33.5	5.0355	
34.0	-4.8341	
34.5	-9.2653	
35.0	-7.6539	
35.5	0.4028	
36.0	2.4170	
36.5	-5.4383	
37.0	-0.4028	
37.5	4.0284	
38.0	6.0426	
38.5	-1.8128	
39.0	-2.6184	
39.5	3.6255	
40.0	14.0993	
40.5	17.3220	
41.0	-0.2014	
41.5	14.3008	
42.0	9.8695	
42.5	-4.4312	
43.0	-6.4454	
43.5	-5.8412	
44.0	4.2298	
44.5	-10.2724	
45.0	-0.2014	
45.5	2.2156	
46.0	4.6326	
46.5	1.4099	
47.0	3.8270	
47.5	-1.4099	
48.0	-1.4099	
48.5	-16.5164	
49.0	-12.6894	
49.5	-14.7036	
50.0	-15.9121	
50.5	-14.3008	
51.0	-7.0497	
51.5	-9.2653	
52.0	-11.0780	
52.5	-3.8270	
53.0	8.4596	
53.5	7.0497	
54.0	5.2369	
54.5	3.4241	
55.0	8.6610	
55.5	-13.4951	
56.0	14.3008	
56.5	-6.2440	
57.0	-0.6043	
57.5	-3.2227	
58.0	-13.0922	
58.5	-10.8766	
59.0	-11.0780	
59.5	9.8695	
60.0	23.9689	
60.5	9.4667	
61.0	38.8739	
61.5	17.1206	
62.0	9.8695	
62.5	16.9192	
63.0	-3.6255	
63.5	-0.6043	
64.0	-11.2795	
64.5	-13.0922	
65.0	-2.2156	
65.5	18.7320	
66.0	11.4809	
66.5	13.8979	
67.0	17.1206	
67.5	-4.2298	
68.0	-17.3220	
68.5	2.0142	
69.0	-3.4241	
69.5	8.2582	
70.0	0.2014	
70.5	-15.5093	
71.0	-5.8412	
71.5	-17.3220	
72.0	-0.2014	
72.5	-5.0355	
73.0	-7.8553	
73.5	-8.2582	
74.0	-11.8837	
74.5	-15.5093	
75.0	-10.4738	
75.5	-3.0213	
76.0	-0.4028	
76.5	-15.5093	
77.0	-8.6610	
77.5	-21.1490	
78.0	-14.9050	
78.5	-8.8624	
79.0	-6.6468	
79.5	-1.0071	
80.0	-0.2014	
80.5	-10.0710	
81.0	-5.8412	
81.5	-0.6043	
82.0	-6.6468	
82.5	7.0497	
83.0	8.4596	
83.5	-2.6184	
84.0	-8.6610	
84.5	-3.2227	
85.0	-6.2440	
85.5	6.0426	
86.0	4.4312	
86.5	7.8553	
87.0	-1.6114	
87.5	3.6255	
88.0	-2.2156	
88.5	-9.6681	
89.0	-3.6255	
89.5	-5.0355	
90.0	-7.6539	
90.5	-7.0497	
91.0	-7.4525	
91.5	-13.2937	
92.0	-13.0922	
92.5	-3.0213	
93.0	-3.0213	
93.5	-3.6255	
94.0	11.0780	
94.5	-1.2085	
95.0	-3.2227	
95.5	-5.8412	
96.0	-5.2369	
96.5	-6.6468	
97.0	-11.6823	
97.5	-5.4383	
98.0	-8.8624	
98.5	-1.8128	
99.0	1.8128	
99.5	-2.8199	
100.0	-12.2866	
100.5	-14.5022	
101.0	-6.2440	
101.5	14.3008	
102.0	4.0284	
102.5	-4.4312	
103.0	-6.4454	
103.5	-11.2795	
104.0	1.0071	
104.5	5.0355	
105.0	-13.2937	
105.5	-9.2653	
106.0	-7.0497	
106.5	-14.7036	
107.0	-1.6114	
107.5	-4.2298	
108.0	-4.4312	
108.5	-14.7036	
109.0	-3.4241	
109.5	-12.6894	
110.0	0.0000	
110.5	-16.5164	
111.0	-7.6539	
111.5	-9.4667	
112.0	-5.0355	
112.5	3.2227	
113.0	-16.7178	
113.5	-7.2511	
114.0	-5.4383	
114.5	-10.0710	
115.0	-7.8553	
115.5	-18.3291	
116.0	-16.5164	
116.5	-4.2298	
117.0	-13.6965	
117.5	-0.2014	
118.0	-1.8128	
118.5	2.6184	
119.0	0.0000	
119.5	-5.0355	
120.0	-10.4738	
120.5	-11.4809	
121.0	1.8128	
121.5	-10.4738	
122.0	-6.6468	
122.5	-7.4525	
123.0	-2.8199	
123.5	2.2156	
124.0	-5.8412	
124.5	-9.4667	
125.0	6.8482	
125.5	5.4383	
126.0	-11.8837	
126.5	-5.0355	
127.0	-1.2085	
127.5	-0.6043	
128.0	11.4809	
128.5	-5.0355	
129.0	0.2014	
129.5	29.6086	
130.0	6.6468	
130.5	7.4525	
131.0	12.8908	
131.5	9.8695	
132.0	0.4028	
132.5	0.2014	
133.0	-0.2014	
133.5	9.0639	
134.0	2.2156	
134.5	2.6184	
135.0	-0.6043	
135.5	13.0922	
136.0	5.8412	
136.5	-10.6752	
137.0	-4.0284	
137.5	2.6184	
138.0	-5.8412	
138.5	-18.3291	
139.0	-3.2227	
139.5	-14.3008	
140.0	-12.4880	
140.5	-13.4951	
141.0	-4.8341	
141.5	-2.2156	
142.0	5.0355	
142.5	2.8199	
143.0	5.8412	
143.5	19.5377	
144.0	23.5660	
144.5	12.2866	
145.0	8.8624	
145.5	-1.0071	
146.0	10.2724	
146.5	-5.2369	
147.0	0.6043	
147.5	-10.6752	
148.0	-10.2724	
148.5	-11.4809	
149.0	0.2014	
149.5	-10.4738	
150.0	-5.6397	
150.5	-4.6326	
151.0	-3.8270	
151.5	14.3008	
152.0	-1.8128	
152.5	-8.0568	
153.0	-7.8553	
153.5	-11.2795	
154.0	5.8412	
154.5	5.2369	
155.0	-0.6043	
155.5	11.6823	
156.0	10.8766	
156.5	10.6752	
157.0	20.7462	
157.5	18.7320	
158.0	15.9121	
158.5	6.0426	
159.0	1.4099	
159.5	-5.2369	
160.0	-0.2014	
160.5	5.4383	
161.0	-13.0922	
161.5	-0.2014	
162.0	3.0213	
162.5	-11.4809	
163.0	-10.2724	
163.5	7.2511	
164.0	-15.7107	
164.5	-37.2625	
165.0	-20.7462	
165.5	-26.7887	
166.0	-12.2866	
166.5	2.2156	
167.0	16.7178	
167.5	-5.0355	
168.0	1.4099	
168.5	-7.2511	
169.0	-12.2866	
169.5	1.4099	
170.0	-8.6610	
170.5	-14.0993	
171.0	-14.7036	
171.5	-9.4667	
172.0	-14.7036	
172.5	0.2014	
173.0	-5.2369	
173.5	-2.8199	
174.0	-4.2298	
174.5	-3.0213	
175.0	10.4738	
175.5	4.0284	
176.0	-2.2156	
176.5	-4.8341	
177.0	-0.2014	
177.5	-9.0639	
178.0	-1.4099	
178.5	-10.6752	
179.0	-3.8270	
179.5	7.6539	
180.0	-2.2156	
180.5	-8.0568	
181.0	8.6610	
181.5	11.6823	
182.0	-0.6043	
182.5	-2.2156	
183.0	3.2227	
183.5	-11.0780	
184.0	-2.8199	
184.5	-7.4525	
185.0	-15.1064	
185.5	-5.2369	
186.0	-16.9192	
186.5	-3.4241	
187.0	0.8057	
187.5	6.0426	
188.0	-0.6043	
188.5	-8.6610	
189.0	-15.7107	
189.5	-13.0922	
190.0	-4.8341	
190.5	1.0071	
191.0	-4.2298	
191.5	-4.2298	
192.0	-15.1064	
192.5	-5.6397	
193.0	-14.7036	
193.5	-1.4099	
194.0	-11.0780	
194.5	-15.9121	
195.0	-3.2227	
195.5	-7.6539	
196.0	7.8553	
196.5	6.0426	
197.0	3.2227	
197.5	-1.4099	
198.0	-7.0497	
198.5	-14.5022	
199.0	2.2156	
199.5	-1.4099	
200.0	8.2582	
200.5	5.8412	
201.0	5.0355	
201.5	-1.8128	
202.0	6.2440	
202.5	1.6114	
203.0	5.2369	
203.5	-4.0284	
204.0	0.6043	
204.5	18.5306	
205.0	2.2156	
205.5	-1.2085	
206.0	-13.2937	
206.5	1.8128	
207.0	-7.0497	
207.5	-4.2298	
208.0	4.2298	
208.5	7.4525	
209.0	8.2582	
209.5	5.0355	
210.0	5.6397	
210.5	-8.6610	
211.0	-14.7036	
211.5	-24.7745	
212.0	1.0071	
212.5	1.8128	
213.0	4.4312	
213.5	8.0568	
214.0	9.6681	
214.5	10.8766	
215.0	0.6043	
215.5	11.0780	
216.0	-0.6043	
216.5	-2.8199	
217.0	-3.2227	
217.5	0.2014	
218.0	3.8270	
218.5	3.6255	
219.0	8.2582	
219.5	4.6326	
220.0	9.8695	
220.5	13.6965	
221.0	12.4880	
221.5	11.4809	
222.0	13.8979	
222.5	-0.2014	
223.0	-2.2156	
223.5	5.0355	
224.0	-1.6114	
224.5	5.0355	
225.0	33.4356	
225.5	-6.4454	
226.0	1.6114	
226.5	-0.2014	
227.0	3.8270	
227.5	2.0142	
228.0	2.4170	
228.5	1.4099	
229.0	4.6326	
229.5	-8.6610	
230.0	-13.4951	
230.5	-13.2937	
231.0	-6.0426	
231.5	-0.2014	
232.0	4.2298	
232.5	9.6681	
233.0	13.4951	
233.5	21.1490	
234.0	17.1206	
234.5	8.2582	
235.0	5.8412	
235.5	0.6043	
236.0	-6.2440	
236.5	6.0426	
237.0	1.4099	
237.5	3.6255	
238.0	9.2653	
238.5	4.8341	
239.0	-1.8128	
239.5	1.8128	
240.0	15.1064	
240.5	4.2298	
241.0	-1.8128	
241.5	-4.2298	
242.0	-15.5093	
242.5	-11.4809	
243.0	-1.6114	
243.5	-3.0213	
244.0	-8.2582	
244.5	-8.8624	
245.0	-6.2440	
245.5	-11.4809	
246.0	-2.6184	
246.5	-3.8270	
247.0	-15.1064	
247.5	3.4241	
248.0	-1.2085	
248.5	-11.4809	
249.0	3.0213	
249.5	-8.6610	
250.0	8.6610	
250.5	1.8128	
251.0	1.4099	
251.5	8.2582	
252.0	18.3291	
252.5	-0.2014	
253.0	11.6823	
253.5	6.4454	
254.0	-3.8270	
254.5	2.6184	
255.0	1.2085	
255.5	3.6255	
256.0	0.2014	
256.5	9.0639	
257.0	8.0568	
257.5	5.2369	
258.0	-12.4880	
258.5	-10.8766	
259.0	-3.0213	
259.5	-11.0780	
260.0	-15.1064	
260.5	-4.0284	
261.0	-3.6255	
261.5	-8.0568	
262.0	-14.0993	
262.5	-10.8766	
263.0	-6.2440	
263.5	-7.4525	
264.0	-12.2866	
264.5	-1.4099	
265.0	-5.4383	
265.5	-7.0497	
266.0	6.6468	
266.5	-0.2014	
267.0	11.4809	
267.5	7.2511	
268.0	15.3078	
268.5	9.4667	
269.0	5.2369	
269.5	3.8270	
270.0	7.8553	
270.5	8.6610	
271.0	5.8412	
271.5	15.3078	
272.0	5.0355	
272.5	0.8057	
273.0	7.6539	
273.5	-4.2298	
274.0	-20.7462	
274.5	9.8695	
275.0	7.4525	
275.5	-7.4525	
276.0	0.4028	
276.5	-12.6894	
277.0	-14.5022	
277.5	-20.5447	
278.0	1.4099	
278.5	-7.4525	
279.0	-13.8979	
279.5	0.2014	
280.0	-16.9192	
280.5	-13.4951	
281.0	-11.8837	
281.5	-3.6255	
282.0	-4.0284	
282.5	-0.4028	
283.0	-7.2511	
283.5	-18.9334	
284.0	10.6752	
284.5	-1.4099	
285.0	-0.6043	
285.5	-17.7249	
286.0	-2.6184	
286.5	-22.3575	
287.0	-26.7887	
287.5	-7.8553	
288.0	-1.8128	
288.5	3.8270	
289.0	0.8057	
289.5	-7.8553	
290.0	-29.6086	
290.5	-18.3291	
291.0	-20.7462	
291.5	-17.9263	
292.0	-14.7036	
292.5	-26.3859	
293.0	-15.9121	
293.5	-13.6965	
294.0	-11.4809	
294.5	-3.2227	
295.0	-4.2298	
295.5	10.8766	
296.0	-2.4170	
296.5	-6.0426	
297.0	8.4596	
297.5	-1.0071	
298.0	-8.6610	
298.5	11.0780	
299.0	8.6610	
299.5	4.6326	
300.0	12.8908	
300.5	30.4143	
301.0	11.2795	
301.5	7.2511	
302.0	-6.2440	
302.5	1.0071	
303.0	8.6610	
303.5	4.0284	
304.0	7.4525	
304.5	3.2227	
305.0	-4.0284	
305.5	7.4525	
306.0	-11.6823	
306.5	5.6397	
307.0	4.2298	
307.5	-2.2156	
308.0	-1.8128	
308.5	1.0071	
309.0	10.0710	
309.5	-11.0780	
310.0	-6.6468	
310.5	-7.4525	
311.0	-15.5093	
311.5	-8.2582	
312.0	-2.0142	
312.5	-11.0780	
313.0	-20.3433	
313.5	-0.6043	
314.0	-2.6184	
314.5	-16.1135	
315.0	-10.2724	
315.5	-15.7107	
316.0	-19.1348	
316.5	-11.2795	
317.0	-5.6397	
317.5	-2.2156	
318.0	-3.0213	
318.5	-14.3008	
319.0	-2.0142	
319.5	-9.8695	
320.0	-16.7178	
320.5	-0.4028	
321.0	-6.2440	
321.5	-7.2511	
322.0	-0.4028	
322.5	-5.6397	
323.0	6.6468	
323.5	-0.2014	
324.0	13.8979	
324.5	6.6468	
325.0	0.2014	
325.5	-7.8553	
326.0	-2.0142	
326.5	0.0000	
327.0	3.4241	
327.5	-1.0071	
328.0	6.8482	
328.5	0.6043	
329.0	4.8341	
329.5	2.4170	
330.0	4.2298	
330.5	-7.6539	
331.0	0.2014	
331.5	-4.4312	
332.0	6.8482	
332.5	-0.4028	
333.0	0.8057	
333.5	-17.9263	
334.0	-3.6255	
334.5	-11.4809	
335.0	10.4738	
335.5	-7.0497	
336.0	-0.6043	
336.5	16.5164	
337.0	4.8341	
337.5	17.1206	
338.0	4.6326	
338.5	3.4241	
339.0	-1.6114	
339.5	-6.2440	
340.0	1.4099	
340.5	-17.1206	
341.0	-8.0568	
341.5	-12.4880	
342.0	-8.6610	
342.5	-15.7107	
343.0	-8.2582	
343.5	3.6255	
344.0	-1.0071	
344.5	17.9263	
345.0	3.6255	
345.5	6.4454	
346.0	2.2156	
346.5	11.6823	
347.0	0.2014	
347.5	6.6468	
348.0	-0.2014	
348.5	4.2298	
349.0	-4.4312	
349.5	-5.8412	
350.0	-3.0213	
350.5	-9.4667	
351.0	-10.2724	
351.5	-3.0213	
352.0	-11.8837	
352.5	-10.2724	
353.0	-4.0284	
353.5	-2.0142	
354.0	-2.4170	
354.5	3.8270	
355.0	-1.8128	
355.5	7.0497	
356.0	2.6184	
356.5	7.2511	
357.0	-3.4241	
357.5	-3.4241	
358.0	-5.6397	
358.5	-8.6610	
359.0	-7.6539	
359.5	-11.6823	
360.0	-14.0993	
360.5	4.0284	
361.0	2.6184	
361.5	-5.8412	
362.0	2.0142	
362.5	-3.4241	
363.0	-6.2440	
363.5	4.2298	
364.0	1.0071	
364.5	10.2724	
365.0	-0.6043	
365.5	3.2227	
366.0	-2.6184	
366.5	-8.0568	
367.0	2.0142	
367.5	-6.0426	
368.0	-4.4312	
368.5	-6.0426	
369.0	-9.4667	
369.5	2.2156	
370.0	3.2227	
370.5	-6.2440	
371.0	-1.8128	
371.5	9.2653	
372.0	3.8270	
372.5	1.0071	
373.0	7.6539	
373.5	-7.6539	
374.0	-4.4312	
374.5	-23.9689	
375.0	-3.8270	
375.5	-5.2369	
376.0	-5.0355	
376.5	-31.6228	
377.0	2.2156	
377.5	9.0639	
378.0	2.0142	
378.5	-4.8341	
379.0	-0.4028	
379.5	1.4099	
380.0	-8.2582	
380.5	1.8128	
381.0	-2.2156	
381.5	-0.2014	
382.0	-7.8553	
382.5	-23.3646	
383.0	-17.9263	
383.5	-6.2440	
384.0	8.0568	
384.5	-9.2653	
385.0	-11.4809	
385.5	6.0426	
386.0	1.4099	
386.5	-5.8412	
387.0	-14.5022	
387.5	-2.8199	
388.0	-9.6681	
388.5	-2.4170	
389.0	-1.0071	
389.5	4.6326	
390.0	-10.2724	
390.5	-0.2014	
391.0	-3.2227	
391.5	-17.5235	
392.0	-1.8128	
392.5	-6.6468	
393.0	1.8128	
393.5	-4.6326	
394.0	-6.4454	
394.5	0.4028	
395.0	-4.4312	
395.5	-0.2014	
396.0	-6.8482	
396.5	1.2085	
397.0	-3.6255	
397.5	-3.2227	
398.0	-11.4809	
398.5	-0.6043	
399.0	-8.4596	
399.5	-20.7462	
400.0	2.6184	
400.5	5.8412	
401.0	4.8341	
401.5	3.6255	
402.0	14.7036	
402.5	1.6114	
403.0	-5.6397	
403.5	1.6114	
404.0	-17.9263	
404.5	-6.0426	
405.0	3.4241	
405.5	-7.2511	
406.0	5.8412	
406.5	-4.8341	
407.0	12.8908	
407.5	13.6965	
408.0	6.8482	
408.5	2.0142	
409.0	10.6752	
409.5	3.6255	
410.0	-1.2085	
410.5	2.2156	
411.0	-2.2156	
411.5	-15.5093	
412.0	-9.2653	
412.5	-11.8837	
413.0	-6.8482	
413.5	-4.6326	
414.0	0.6043	
414.5	6.8482	
415.0	-3.4241	
415.5	1.4099	
416.0	-14.5022	
416.5	-5.4383	
417.0	-10.2724	
417.5	-3.0213	
418.0	-5.4383	
418.5	11.0780	
419.0	-1.4099	
419.5	-19.1348	
420.0	-11.6823	
420.5	-8.2582	
421.0	-4.6326	
421.5	-14.3008	
422.0	-6.6468	
422.5	-3.2227	
423.0	-17.9263	
423.5	-15.3078	
424.0	-5.8412	
424.5	-1.4099	
425.0	-9.4667	
425.5	1.0071	
426.0	-2.8199	
426.5	3.6255	
427.0	-6.6468	
427.5	0.6043	
428.0	-2.8199	
428.5	2.8199	
429.0	4.0284	
429.5	-3.8270	
430.0	-7.2511	
430.5	-10.4738	
431.0	-7.8553	
431.5	1.6114	
432.0	-5.0355	
432.5	5.2369	
433.0	-1.8128	
433.5	-2.2156	
434.0	2.6184	
434.5	-11.4809	
435.0	-7.0497	
435.5	-7.8553	
436.0	-14.7036	
436.5	-5.6397	
437.0	-4.6326	
437.5	-1.8128	
438.0	-6.6468	
438.5	13.0922	
439.0	-5.4383	
439.5	0.8057	
440.0	9.0639	
440.5	2.4170	
441.0	1.6114	
441.5	-10.6752	
442.0	-5.8412	
442.5	-3.4241	
443.0	-0.6043	
443.5	-3.2227	
444.0	13.4951	
444.5	-21.5518	
445.0	5.0355	
445.5	-7.8553	
446.0	-0.6043	
446.5	5.8412	
447.0	-5.8412	
447.5	-20.5447	
448.0	-4.2298	
448.5	-9.8695	
449.0	-3.0213	
449.5	5.0355	
450.0	2.8199	
450.5	5.6397	
451.0	0.8057	
451.5	5.2369	
452.0	-6.0426	
452.5	7.8553	
453.0	21.5518	
453.5	18.9334	
454.0	4.4312	
454.5	-3.8270	
455.0	-2.8199	
455.5	6.6468	
456.0	17.3220	
456.5	17.1206	
457.0	18.7320	
457.5	15.9121	
458.0	7.4525	
458.5	2.0142	
459.0	-11.0780	
459.5	-5.4383	
460.0	-17.1206	
460.5	-3.6255	
461.0	-17.3220	
461.5	-13.4951	
462.0	-11.4809	
462.5	-17.9263	
463.0	-21.3504	
463.5	-13.6965	
464.0	-16.7178	
464.5	-7.4525	
465.0	-7.4525	
465.5	-15.3078	
466.0	-4.6326	
466.5	-15.9121	
467.0	-3.6255	
467.5	6.2440	
468.0	6.6468	
468.5	-11.8837	
469.0	0.4028	
469.5	1.2085	
470.0	-6.8482	
470.5	-5.0355	
471.0	-11.2795	
471.5	-11.0780	
472.0	-11.8837	
472.5	-10.4738	
473.0	-3.0213	
473.5	-9.0639	
474.0	-17.9263	
474.5	-1.8128	
475.0	-1.0071	
475.5	9.6681	
476.0	5.6397	
476.5	-18.3291	
477.0	4.8341	
477.5	0.6043	
478.0	1.0071	
478.5	-2.6184	
479.0	-11.4809	
479.5	-9.2653	
480.0	-7.8553	
480.5	-6.2440	
481.0	0.8057	
481.5	-2.8199	
482.0	-6.8482	
482.5	1.0071	
483.0	-4.6326	
483.5	0.6043	
484.0	2.6184	
484.5	4.6326	
485.0	4.4312	
485.5	2.6184	
486.0	5.4383	
486.5	9.6681	
487.0	-0.6043	
487.5	3.0213	
488.0	4.2298	
488.5	9.0639	
489.0	-8.0568	
489.5	-3.6255	
490.0	-8.6610	
490.5	-17.3220	
491.0	6.8482	
491.5	1.4099	
492.0	-16.1135	
492.5	0.0000	
493.0	-2.8199	
493.5	10.6752	
494.0	9.2653	
494.5	9.8695	
495.0	-1.0071	
495.5	6.4454	
496.0	2.2156	
496.5	4.0284	
497.0	14.7036	
497.5	15.1064	
498.0	8.2582	
498.5	20.1419	
499.0	10.2724	
499.5	3.4241	
500.0	9.4667	
500.5	10.2724	
501.0	18.1277	
501.5	2.6184	
502.0	7.8553	
502.5	-6.2440	
503.0	-11.8837	
503.5	-17.5235	
504.0	-20.5447	
504.5	-20.1419	
505.0	-21.9547	
505.5	-1.0071	
506.0	-13.6965	
506.5	-0.2014	
507.0	-11.4809	
507.5	-3.8270	
508.0	-8.4596	
508.5	-4.2298	
509.0	-13.8979	
509.5	-13.8979	
510.0	-16.7178	
510.5	-18.3291	
511.0	9.2653	
511.5	-15.5093	
512.0	-6.8482	
512.5	-7.0497	
513.0	-8.0568	
513.5	-1.8128	
514.0	16.1135	
514.5	-7.0497	
515.0	-4.2298	
515.5	7.0497	
516.0	-2.8199	
516.5	-26.3859	
517.0	-7.0497	
517.5	-6.2440	
518.0	1.6114	
518.5	-3.0213	
519.0	-8.2582	
519.5	-10.4738	
520.0	-0.8057	
520.5	-1.8128	
521.0	0.8057	
521.5	-6.6468	
522.0	5.6397	
522.5	12.4880	
523.0	-2.0142	
523.5	4.6326	
524.0	4.8341	
524.5	7.4525	
525.0	1.4099	
525.5	-0.4028	
526.0	0.4028	
526.5	-8.2582	
527.0	-4.8341	
527.5	2.6184	
528.0	3.8270	
528.5	8.0568	
529.0	-11.0780	
529.5	-4.4312	
530.0	1.4099	
530.5	1.0071	
531.0	-10.6752	
531.5	-17.7249	
532.0	-19.7391	
532.5	-7.4525	
533.0	-13.2937	
533.5	-14.9050	
534.0	-13.0922	
534.5	-20.1419	
535.0	-0.6043	
535.5	-2.2156	
536.0	-11.0780	
536.5	-1.8128	
537.0	-10.2724	
537.5	-3.8270	
538.0	2.4170	
538.5	-7.4525	
539.0	-8.6610	
539.5	-1.8128	
540.0	2.0142	
540.5	2.0142	
541.0	9.8695	
541.5	4.2298	
542.0	5.8412	
542.5	11.4809	
543.0	5.8412	
543.5	-0.2014	
544.0	0.0000	
544.5	1.8128	
545.0	1.8128	
545.5	-5.4383	
546.0	0.4028	
546.5	7.0497	
547.0	39.2767	
547.5	14.0993	
548.0	2.4170	
548.5	-2.0142	
549.0	0.6043	
549.5	-1.4099	
550.0	7.4525	
550.5	4.2298	
551.0	3.6255	
551.5	6.4454	
552.0	5.4383	
552.5	-4.6326	
553.0	-3.2227	
553.5	-14.7036	
554.0	-6.8482	
554.5	11.6823	
555.0	6.6468	
555.5	-2.4170	
556.0	-0.6043	
556.5	-3.8270	
557.0	-2.6184	
557.5	-9.2653	
558.0	-0.4028	
558.5	1.4099	
559.0	4.2298	
559.5	-6.0426	
560.0	-7.2511	
560.5	-4.4312	
561.0	9.8695	
561.5	-4.2298	
562.0	2.6184	
562.5	2.2156	
563.0	0.4028	
563.5	2.2156	
564.0	11.4809	
564.5	-22.5589	
565.0	-20.3433	
565.5	1.8128	
566.0	1.8128	
566.5	4.0284	
567.0	-5.0355	
567.5	-3.0213	
568.0	-5.0355	
568.5	-1.0071	
569.0	-8.2582	
569.5	1.0071	
570.0	-0.6043	
570.5	-0.2014	
571.0	-7.8553	
571.5	-3.2227	
572.0	8.2582	
572.5	5.2369	
573.0	-1.2085	
573.5	-4.2298	
574.0	-2.8199	
574.5	-2.2156	
575.0	-16.3149	
575.5	-10.4738	
576.0	16.7178	
576.5	3.6255	
577.0	1.8128	
577.5	-5.4383	
578.0	8.6610	
578.5	14.9050	
579.0	-4.4312	
579.5	-16.7178	
580.0	-17.3220	
580.5	-1.6114	
581.0	0.6043	
581.5	11.0780	
582.0	3.8270	
582.5	-1.8128	
583.0	2.2156	
583.5	4.2298	
584.0	4.8341	
584.5	-9.8695	
585.0	-14.3008	
585.5	-10.6752	
586.0	2.4170	
586.5	0.2014	
587.0	4.8341	
587.5	2.8199	
588.0	-3.4241	
588.5	-23.5660	
589.0	-2.4170	
589.5	-11.0780	
590.0	-7.6539	
590.5	1.2085	
591.0	-11.0780	
591.5	3.2227	
592.0	11.0780	
592.5	-0.6043	
593.0	-6.0426	
593.5	-3.4241	
594.0	-8.2582	
594.5	-16.3149	
595.0	-17.7249	
595.5	-2.6184	
596.0	1.8128	
596.5	5.2369	
597.0	-13.4951	
597.5	-13.4951	
598.0	-26.7887	
598.5	-29.4072	
599.0	-21.1490	
599.5	-17.1206	
600.0	-15.9121	
600.5	-17.1206	
601.0	-10.0710	
601.5	-13.0922	
602.0	-10.2724	
602.5	-21.7533	
603.0	-12.4880	
603.5	-5.4383	
604.0	-5.0355	
604.5	-16.3149	
605.0	-20.7462	
605.5	-19.1348	
606.0	-24.7745	
606.5	-5.2369	
607.0	5.4383	
607.5	8.0568	
608.0	-6.2440	
608.5	1.8128	
609.0	-2.2156	
609.5	3.8270	
610.0	4.2298	
610.5	9.8695	
611.0	1.2085	
611.5	6.6468	
612.0	-15.1064	
612.5	8.8624	
613.0	-12.6894	
613.5	-11.0780	
614.0	-1.6114	
614.5	2.6184	
615.0	6.4454	
615.5	7.4525	
616.0	6.0426	
616.5	15.5093	
617.0	13.4951	
617.5	19.9405	
618.0	-1.2085	
618.5	-1.4099	
619.0	-2.4170	
619.5	7.0497	
620.0	10.2724	
620.5	4.0284	
621.0	6.8482	
621.5	-7.0497	
622.0	1.0071	
622.5	12.6894	
623.0	-3.0213	
623.5	-8.0568	
624.0	-1.0071	
624.5	-9.6681	
625.0	-5.0355	
625.5	-11.4809	
626.0	-5.4383	
626.5	6.8482	
627.0	-4.4312	
627.5	4.6326	
628.0	-5.4383	
628.5	-5.8412	
629.0	0.0000	
629.5	-4.6326	
630.0	5.4383	
630.5	5.4383	
631.0	5.4383	
631.5	5.4383	
632.0	5.4383	
632.5	5.4383	
633.0	5.4383	
633.5	5.4383	
634.0	5.4383	
634.5	5.4383	
635.0	5.4383	
635.5	5.4383	
636.0	5.4383	
636.5	5.4383	
637.0	5.4383	
637.5	-0.2014	
638.0	4.6326	
638.5	-0.2014	
639.0	1.8128	
639.5	-9.0639	
640.0	-7.8553	
640.5	-6.2440	
641.0	7.4525	
641.5	13.8979	
642.0	14.3008	
642.5	12.2866	
643.0	2.0142	
643.5	5.0355	
644.0	-3.6255	
644.5	3.8270	
645.0	2.8199	
645.5	2.8199	
646.0	0.4028	
646.5	5.8412	
647.0	-0.4028	
647.5	1.2085	
648.0	1.0071	
648.5	-11.0780	
649.0	-2.4170	
649.5	-7.2511	
650.0	-3.0213	
650.5	-4.4312	
651.0	-0.6043	
651.5	-2.2156	
652.0	4.8341	
652.5	3.4241	
653.0	6.8482	
653.5	-8.2582	
654.0	-4.6326	
654.5	-4.2298	
655.0	1.6114	
655.5	-13.8979	
656.0	-5.6397	
656.5	-14.7036	
657.0	-9.8695	
657.5	-0.6043	
658.0	-25.5802	
658.5	-34.6441	
659.0	-4.0284	
659.5	-11.6823	
660.0	-1.0071	
660.5	-8.2582	
661.0	-23.7675	
661.5	-1.4099	
662.0	2.8199	
662.5	10.6752	
663.0	16.5164	
663.5	14.3008	
664.0	18.7320	
664.5	-6.0426	
665.0	-8.6610	
665.5	-16.7178	
666.0	-7.2511	
666.5	-31.4214	
667.0	-14.3008	
667.5	-28.4001	
668.0	-31.2200	
668.5	-36.6583	
669.0	-13.8979	
669.5	-28.8029	
670.0	-6.6468	
670.5	-12.0851	
671.0	-1.0071	
671.5	-6.6468	
672.0	8.2582	
672.5	-14.9050	
673.0	0.6043	
673.5	-5.0355	
674.0	0.2014	
674.5	4.6326	
675.0	16.3149	
675.5	18.7320	
676.0	19.7391	
676.5	-0.6043	
677.0	11.6823	
677.5	8.6610	
678.0	4.2298	
678.5	24.3717	
679.0	5.8412	
679.5	5.2369	
680.0	1.8128	
680.5	2.6184	
681.0	1.6114	
681.5	7.0497	
682.0	12.2866	
682.5	1.4099	
683.0	7.6539	
683.5	1.4099	
684.0	9.0639	
684.5	-0.2014	
685.0	-6.6468	
685.5	4.6326	
686.0	4.2298	
686.5	-5.4383	
687.0	9.8695	
687.5	-6.4454	
688.0	-1.8128	
688.5	1.4099	
689.0	-7.8553	
689.5	-6.0426	
690.0	5.4383	
690.5	-1.0071	
691.0	-5.0355	
691.5	-13.4951	
692.0	-11.0780	
692.5	-7.2511	
693.0	-5.8412	
693.5	-15.7107	
694.0	-13.2937	
694.5	-7.0497	
695.0	9.4667	
695.5	-4.8341	
696.0	-6.2440	
696.5	-2.0142	
697.0	-5.4383	
697.5	-14.5022	
698.0	-10.4738	
698.5	-11.4809	
699.0	-15.5093	
699.5	-12.8908	
700.0	-3.2227	
700.5	-9.2653	
701.0	-11.4809	
701.5	-5.0355	
702.0	-4.2298	
702.5	6.8482	
703.0	-8.0568	
703.5	-3.2227	
704.0	-4.0284	
704.5	2.0142	
705.0	-2.4170	
705.5	3.0213	
706.0	-0.6043	
706.5	7.4525	
707.0	6.6468	
707.5	6.6468	
708.0	15.5093	
708.5	-11.4809	
709.0	-13.8979	
709.5	-20.1419	
710.0	-11.8837	
710.5	-11.4809	
711.0	2.2156	
711.5	5.2369	
712.0	-4.4312	
712.5	1.4099	
713.0	2.0142	
713.5	5.8412	
714.0	4.6326	
714.5	4.2298	
715.0	-0.4028	
715.5	3.2227	
716.0	8.2582	
716.5	22.3575	
717.0	1.0071	
717.5	-7.6539	
718.0	0.2014	
718.5	-0.4028	
719.0	-4.6326	
719.5	14.7036	
720.0	-5.2369	
720.5	8.6610	
721.0	10.6752	
721.5	2.6184	
722.0	13.6965	
722.5	16.9192	
723.0	8.2582	
723.5	-1.4099	
724.0	3.0213	
724.5	-7.8553	
725.0	3.6255	
725.5	-0.6043	
726.0	-1.0071	
726.5	16.3149	
727.0	20.3433	
727.5	11.4809	
728.0	10.8766	
728.5	11.6823	
729.0	13.4951	
729.5	1.4099	
730.0	-1.2085	
730.5	-0.2014	
731.0	6.4454	
731.5	30.6157	
732.0	21.5518	
732.5	15.1064	
733.0	7.0497	
733.5	-17.3220	
734.0	-1.8128	
734.5	-8.4596	
735.0	0.6043	
735.5	-7.6539	
736.0	-0.2014	
736.5	-6.6468	
737.0	4.6326	
737.5	3.4241	
738.0	7.8553	
738.5	1.2085	
739.0	-15.9121	
739.5	-13.8979	
740.0	-26.1845	
740.5	-21.5518	
741.0	-15.9121	
741.5	-13.0922	
742.0	-9.6681	
742.5	-8.2582	
743.0	-12.6894	
743.5	-7.6539	
744.0	-23.1632	
744.5	-19.7391	
745.0	-12.4880	
745.5	-19.9405	
746.0	-16.1135	
746.5	-7.6539	
747.0	-4.6326	
747.5	-7.6539	
748.0	-3.8270	
748.5	-7.0497	
749.0	-14.5022	
749.5	-5.6397	
750.0	1.8128	
750.5	-1.2085	
751.0	6.4454	
751.5	-12.6894	
752.0	-5.6397	
752.5	-6.8482	
753.0	-0.2014	
753.5	-2.8199	
754.0	-11.0780	
754.5	-4.6326	
755.0	-14.0993	
755.5	-13.4951	
756.0	-12.2866	
756.5	-17.1206	
757.0	-12.4880	
757.5	-19.9405	
758.0	-18.3291	
758.5	-17.9263	
759.0	-21.1490	
759.5	-17.9263	
760.0	-12.0851	
760.5	9.4667	
761.0	6.4454	
761.5	13.4951	
762.0	9.8695	
762.5	2.0142	
763.0	-7.8553	
763.5	6.6468	
764.0	1.4099	
764.5	-0.2014	
765.0	13.6965	
765.5	-3.2227	
766.0	-2.8199	
766.5	6.4454	
767.0	11.4809	
767.5	11.0780	
768.0	5.0355	
768.5	-3.4241	
769.0	5.2369	
769.5	1.8128	
770.0	-9.2653	
770.5	1.8128	
771.0	-1.2085	
771.5	-3.8270	
772.0	0.0000	
772.5	3.8270	
773.0	8.0568	
773.5	9.8695	
774.0	5.8412	
774.5	7.2511	
775.0	-3.8270	
775.5	7.8553	
776.0	-1.0071	
776.5	-1.4099	
777.0	1.8128	
777.5	6.0426	
778.0	-8.2582	
778.5	-14.3008	
779.0	-15.1064	
779.5	-17.9263	
780.0	-4.0284	
780.5	-6.4454	
781.0	-4.2298	
781.5	-8.2582	
782.0	-6.6468	
782.5	-2.2156	
783.0	9.6681	
783.5	-0.6043	
784.0	-11.4809	
784.5	10.2724	
785.0	12.4880	
785.5	10.4738	
786.0	12.4880	
786.5	13.4951	
787.0	-7.6539	
787.5	1.4099	
788.0	-3.4241	
788.5	0.4028	
789.0	-0.8057	
789.5	1.6114	
790.0	-4.6326	
790.5	4.6326	
791.0	23.5660	
791.5	14.5022	
792.0	14.7036	
792.5	4.6326	
793.0	-1.0071	
793.5	-17.9263	
794.0	-18.3291	
794.5	-10.4738	
795.0	-0.8057	
795.5	-13.6965	
796.0	10.2724	
796.5	11.6823	
797.0	2.6184	
797.5	-7.0497	
798.0	-10.6752	
798.5	-5.0355	
799.0	-5.4383	
799.5	-9.0639	
800.0	-2.2156	
800.5	-1.0071	
801.0	-12.6894	
801.5	-10.0710	
802.0	2.0142	
802.5	-2.0142	
803.0	-2.2156	
803.5	-1.6114	
804.0	2.0142	
804.5	-12.6894	
805.0	-10.8766	
805.5	-8.6610	
806.0	-3.6255	
806.5	9.4667	
807.0	0.2014	
807.5	5.4383	
808.0	8.6610	
808.5	0.4028	
809.0	-5.4383	
809.5	-8.2582	
810.0	-2.8199	
810.5	-3.8270	
811.0	-11.2795	
811.5	-15.1064	
812.0	-17.5235	
812.5	-14.3008	
813.0	-14.5022	
813.5	-23.1632	
814.0	-4.0284	
814.5	5.8412	
815.0	-2.8199	
815.5	6.4454	
816.0	7.4525	
816.5	5.6397	
817.0	-2.2156	
817.5	18.9334	
818.0	9.8695	
818.5	12.2866	
819.0	-8.2582	
819.5	-4.4312	
820.0	7.4525	
820.5	-10.2724	
821.0	-8.6610	
821.5	-18.7320	
822.0	-23.9689	
822.5	-3.0213	
823.0	-13.4951	
823.5	8.0568	
824.0	4.8341	
824.5	1.4099	
825.0	6.6468	
825.5	4.6326	
826.0	3.4241	
826.5	-2.8199	
827.0	18.5306	
827.5	12.8908	
828.0	3.6255	
828.5	8.2582	
829.0	-0.8057	
829.5	13.4951	
830.0	-2.0142	
830.5	-1.6114	
831.0	-10.6752	
831.5	-5.6397	
832.0	-4.2298	
832.5	6.8482	
833.0	-6.6468	
833.5	-6.0426	
834.0	-8.4596	
834.5	-11.0780	
835.0	-18.9334	
835.5	-6.0426	
836.0	-11.0780	
836.5	-5.4383	
837.0	-5.8412	
837.5	-7.6539	
838.0	-10.0710	
838.5	-1.8128	
839.0	2.4170	
839.5	-1.4099	
840.0	2.8199	
840.5	-10.2724	
841.0	6.2440	
841.5	10.6752	
842.0	-25.5802	
842.5	-4.2298	
843.0	-7.6539	
843.5	0.4028	
844.0	-12.6894	
844.5	-16.7178	
845.0	-13.4951	
845.5	-9.2653	
846.0	-19.9405	
846.5	7.0497	
847.0	-18.7320	
847.5	-1.8128	
848.0	-11.2795	
848.5	-5.2369	
849.0	-9.0639	
849.5	-9.2653	
850.0	5.4383	
850.5	-8.2582	
851.0	20.3433	
851.5	2.4170	
852.0	-6.4454	
852.5	-8.2582	
853.0	-12.4880	
853.5	-14.5022	
854.0	-16.1135	
854.5	-14.0993	
855.0	-13.6965	
855.5	-19.1348	
856.0	-21.1490	
856.5	-26.5873	
857.0	-13.8979	
857.5	-28.1987	
858.0	-16.7178	
858.5	-15.9121	
859.0	-11.4809	
859.5	-8.2582	
860.0	0.2014	
860.5	-3.4241	
861.0	10.6752	
861.5	1.4099	
862.0	5.2369	
862.5	2.8199	
863.0	21.9547	
863.5	1.6114	
864.0	-1.4099	
864.5	-6.6468	
865.0	5.4383	
865.5	-3.0213	
866.0	14.7036	
866.5	14.5022	
867.0	2.4170	
867.5	-8.0568	
868.0	-3.4241	
868.5	-19.9405	
869.0	-8.2582	
869.5	-25.1774	
870.0	-25.5802	
870.5	-8.0568	
871.0	-3.0213	
871.5	-20.7462	
872.0	-13.0922	
872.5	-2.2156	
873.0	1.2085	
873.5	3.2227	
874.0	-5.2369	
874.5	-17.7249	
875.0	0.8057	
875.5	-6.0426	
876.0	10.4738	
876.5	9.6681	
877.0	2.0142	
877.5	10.0710	
878.0	8.8624	
878.5	17.9263	
879.0	0.6043	
879.5	-0.6043	
880.0	-3.8270	
880.5	-14.7036	
881.0	-15.9121	
881.5	-10.6752	
882.0	0.6043	
882.5	5.8412	
883.0	4.2298	
883.5	5.8412	
884.0	4.4312	
884.5	5.8412	
885.0	7.6539	
885.5	0.8057	
886.0	-5.6397	
886.5	-8.4596	
887.0	-14.7036	
887.5	-5.4383	
888.0	-0.2014	
888.5	-14.7036	
889.0	-7.6539	
889.5	-6.0426	
890.0	-8.2582	
890.5	-17.9263	
891.0	1.4099	
891.5	1.6114	
892.0	1.2085	
892.5	-15.1064	
893.0	-10.2724	
893.5	-8.2582	
894.0	-2.2156	
894.5	19.3362	
895.0	19.5377	
895.5	15.7107	
896.0	-5.4383	
896.5	0.0000	
897.0	-1.2085	
897.5	-15.9121	
898.0	-16.1135	
898.5	-1.4099	
899.0	5.8412	
899.5	21.7533	
900.0	-1.2085	
900.5	-3.8270	
901.0	-7.0497	
901.5	12.0851	
902.0	20.7462	
902.5	5.4383	
903.0	1.4099	
903.5	-10.2724	
904.0	-5.8412	
904.5	-6.0426	
905.0	-0.2014	
905.5	7.8553	
906.0	-10.2724	
906.5	8.0568	
907.0	-7.4525	
907.5	-13.2937	
908.0	-9.0639	
908.5	5.0355	
909.0	-10.0710	
909.5	-16.7178	
910.0	-7.6539	
910.5	-17.3220	
911.0	-15.1064	
911.5	-1.6114	
912.0	-4.2298	
912.5	-8.8624	
913.0	-9.0639	
913.5	-0.4028	
914.0	3.4241	
914.5	8.0568	
915.0	12.8908	
915.5	13.2937	
916.0	17.5235	
916.5	0.2014	
917.0	6.4454	
917.5	-4.2298	
918.0	4.6326	
918.5	7.8553	
919.0	8.8624	
919.5	-0.2014	
920.0	5.0355	
920.5	14.3008	
921.0	20.7462	
921.5	6.6468	
922.0	29.6086	
922.5	20.7462	
923.0	21.3504	
923.5	31.2200	
924.0	28.6015	
924.5	15.1064	
925.0	23.3646	
925.5	18.1277	
926.0	6.0426	
926.5	-11.0780	
927.0	-3.8270	
927.5	-6.0426	
928.0	13.0922	
928.5	-20.1419	
929.0	-29.6086	
929.5	-37.2625	
930.0	-34.0398	
930.5	-37.6654	
931.0	-53.3761	
931.5	-46.5278	
932.0	-32.0256	
932.5	-16.7178	
933.0	-15.1064	
933.5	-13.2937	
934.0	-15.5093	
934.5	-3.8270	
935.0	-8.0568	
935.5	-1.4099	
936.0	10.6752	
936.5	-6.0426	
937.0	-4.2298	
937.5	-6.2440	
938.0	2.0142	
938.5	2.0142	
939.0	2.0142	
939.5	2.0142	
940.0	2.0142	
940.5	2.0142	
941.0	2.0142	
941.5	2.0142	
942.0	2.0142	
942.5	2.0142	
943.0	2.0142	
943.5	2.0142	
944.0	2.0142	
944.5	2.0142	
945.0	2.0142	
945.5	-14.5022	
946.0	-10.6752	
946.5	-13.2937	
947.0	-15.1064	
947.5	-12.2866	
948.0	-16.5164	
948.5	0.6043	
949.0	-11.4809	
949.5	-7.0497	
950.0	5.4383	
950.5	-0.2014	
951.0	-10.6752	
951.5	-1.8128	
952.0	-15.5093	
952.5	-11.6823	
953.0	-9.0639	
953.5	1.2085	
954.0	5.2369	
954.5	16.3149	
955.0	7.2511	
955.5	19.5377	
956.0	16.1135	
956.5	8.0568	
957.0	23.5660	
957.5	12.2866	
958.0	17.9263	
958.5	16.5164	
959.0	13.4951	
959.5	14.3008	
960.0	14.0993	
960.5	5.0355	
961.0	-5.6397	
961.5	2.0142	
962.0	-11.4809	
962.5	-27.5944	
963.0	-45.1179	
963.5	-16.7178	
964.0	-36.4569	
964.5	-26.5873	
965.0	-23.5660	
965.5	-22.3575	
966.0	-1.8128	
966.5	4.2298	
967.0	-19.9405	
967.5	-43.7079	
968.0	-70.2953	
968.5	-83.1861	
969.0	-69.8924	
969.5	-71.7052	
970.0	-47.7363	
970.5	-21.7533	
971.0	22.5589	
971.5	43.5065	
972.0	74.3236	
972.5	98.6954	
973.0	89.6315	
973.5	66.4683	
974.0	26.9902	
974.5	8.2582	
975.0	35.0469	
975.5	17.1206	
976.0	17.9263	
976.5	-8.0568	
977.0	-1.4099	
977.5	-7.8553	
978.0	-0.6043	
978.5	-16.1135	
979.0	-33.2341	
979.5	-23.1632	
980.0	-31.2200	
980.5	-40.0824	
981.0	-50.9590	
981.5	-35.8526	
982.0	-28.6015	
982.5	-24.7745	
983.0	-13.4951	
983.5	-20.7462	
984.0	-5.8412	
984.5	-5.4383	
985.0	0.8057	
985.5	35.6512	
986.0	43.1037	
986.5	46.5278	
987.0	91.0414	
987.5	117.2259	
988.0	130.5196	
988.5	138.9792	
989.0	102.1195	
989.5	45.7221	
990.0	-8.2582	
990.5	-37.8668	
991.0	-45.5207	
991.5	-37.0611	
992.0	-17.1206	
992.5	28.4001	
993.0	73.3165	
993.5	65.6626	
994.0	13.0922	
994.5	-19.9405	
995.0	-26.1845	
995.5	-55.9945	
996.0	-17.5235	
996.5	19.5377	
997.0	74.7265	
997.5	52.9732	
998.0	34.4427	
998.5	18.3291	
999.0	-7.8553	
999.5	-45.7221	
1000.0	-57.4044	
1000.5	-55.7931	
1001.0	-41.0895	
1001.5	-29.4072	
1002.0	-18.3291	
1002.5	-13.4951	
1003.0	-17.3220	
1003.5	-26.9902	
1004.0	-34.8455	
1004.5	-26.3859	
1005.0	-27.9973	
1005.5	-36.4569	
1006.0	-48.9448	
1006.5	-19.7391	
1007.0	0.8057	
1007.5	5.0355	
1008.0	-4.6326	
1008.5	-28.1987	
1009.0	-28.8029	
1009.5	-10.4738	
1010.0	3.6255	
1010.5	-11.8837	
1011.0	2.6184	
1011.5	35.6512	
1012.0	52.5704	
1012.5	49.7505	
1013.0	41.4923	
1013.5	17.3220	
1014.0	4.2298	
1014.5	10.6752	
1015.0	8.2582	
1015.5	33.2341	
1016.0	73.1151	
1016.5	99.5010	
1017.0	91.6457	
1017.5	93.8613	
1018.0	98.0911	
1018.5	86.4088	
1019.0	63.8498	
1019.5	76.3378	
1020.0	59.8215	
1020.5	61.2314	
1021.0	33.6370	
1021.5	27.1916	
1022.0	-21.1490	
1022.5	-76.1364	
1023.0	-122.2614	
1023.5	-136.1593	
1024.0	-114.6075	
1024.5	-81.5747	
1025.0	-85.6031	
1025.5	-100.5081	
1026.0	-119.4415	
1026.5	-97.0840	
1027.0	-61.4328	
1027.5	-47.3335	
1028.0	-40.4852	
1028.5	-26.9902	
1029.0	-16.7178	
1029.5	-4.4312	
1030.0	19.9405	
1030.5	41.8952	
1031.0	28.4001	
1031.5	13.6965	
1032.0	-32.0256	
1032.5	-61.6342	
1033.0	-78.7549	
1033.5	-119.8444	
1034.0	-124.2756	
1034.5	-122.2614	
1035.0	-88.2216	
1035.5	-74.9279	
1036.0	-88.2216	
1036.5	-88.2216	
1037.0	-88.2216	
1037.5	-88.2216	
1038.0	-88.2216	
1038.5	-88.2216	
1039.0	-88.2216	
1039.5	-88.2216	
1040.0	-88.2216	
1040.5	-88.2216	
1041.0	-88.2216	
1041.5	-88.2216	
1042.0	-88.2216	
1042.5	-88.2216	
1043.0	-88.2216	
1043.5	-109.1691	
1044.0	-110.1762	
1044.5	-76.9421	
1045.0	15.5093	
1045.5	81.5747	
1046.0	115.0103	
1046.5	155.6969	
1047.0	172.0119	
1047.5	152.8771	
1048.0	143.8132	
1048.5	122.0600	
1049.0	124.8798	
1049.5	119.4415	
1050.0	103.5294	
1050.5	77.3449	
1051.0	48.9448	
1051.5	39.4781	
1052.0	30.4143	
1052.5	20.7462	
1053.0	34.0398	
1053.5	37.6654	
1054.0	26.9902	
1054.5	-0.4028	
1055.0	-8.0568	
1055.5	-21.1490	
1056.0	-33.2341	
1056.5	-18.7320	
1057.0	-2.2156	
1057.5	-13.8979	
1058.0	-9.6681	
1058.5	-5.0355	
1059.0	4.4312	
1059.5	-26.7887	
1060.0	-68.4825	
1060.5	-104.5365	
1061.0	-76.7407	
1061.5	-36.8597	
1062.0	-21.3504	
1062.5	-69.0867	
1063.0	-131.5267	
1063.5	-142.0005	
1064.0	-171.2062	
1064.5	-185.7084	
1065.0	-227.8050	
1065.5	-253.3852	
1066.0	-206.8574	
1066.5	-116.6217	
1067.0	-18.9334	
1067.5	75.1293	
1068.0	152.4742	
1068.5	206.0517	
1069.0	225.5894	
1069.5	197.3907	
1070.0	153.6828	
1070.5	127.9011	
1071.0	154.8913	
1071.5	223.7766	
1072.0	243.5157	
1072.5	255.8022	
1073.0	226.3951	
1073.5	211.0872	
1074.0	191.9524	
1074.5	151.2657	
1075.0	77.9492	
1075.5	22.3575	
1076.0	17.5235	
1076.5	43.3051	
1077.0	51.5633	
1077.5	68.8853	
1078.0	8.8624	
1078.5	-96.0769	
1079.0	-169.9977	
1079.5	-158.1140	
1080.0	-89.2287	
1080.5	-60.8286	
1081.0	-42.0966	
1081.5	-21.1490	
1082.0	-28.4001	
1082.5	-57.4044	
1083.0	-45.7221	
1083.5	-24.3717	
1084.0	-9.2653	
1084.5	17.1206	
1085.0	37.8668	
1085.5	61.6342	
1086.0	52.9732	
1086.5	48.9448	
1087.0	11.8837	
1087.5	5.0355	
1088.0	-4.6326	
1088.5	-17.9263	
1089.0	-30.4143	
1089.5	-12.8908	
1090.0	10.4738	
1090.5	23.9689	
1091.0	8.2582	
1091.5	-16.3149	
1092.0	-33.0327	
1092.5	-14.0993	
1093.0	-35.0469	
1093.5	-40.0824	
1094.0	-27.1916	
1094.5	-38.2696	
1095.0	-74.5251	
1095.5	-56.1959	
1096.0	-33.4356	
1096.5	-25.1774	
1097.0	-14.3008	
1097.5	-21.7533	
1098.0	-10.8766	
1098.5	-32.8313	
1099.0	-48.1392	
1099.5	-110.5791	
1100.0	-126.0883	
1100.5	-109.9748	
1101.0	-98.4939	
1101.5	-95.0698	
1102.0	-75.3307	
1102.5	-69.4896	
1103.0	-43.9094	
1103.5	8.0568	
1104.0	53.7789	
1104.5	69.4896	
1105.0	40.0824	
1105.5	16.7178	
1106.0	-4.6326	
1106.5	-30.0114	
1107.0	-35.6512	
1107.5	-23.7675	
1108.0	-34.4427	
1108.5	-8.6610	
1109.0	21.9547	
1109.5	31.2200	
1110.0	11.0780	
1110.5	19.9405	
1111.0	35.6512	
1111.5	73.5180	
1112.0	134.7494	
1112.5	127.4983	
1113.0	106.7521	
1113.5	65.2598	
1114.0	19.9405	
1114.5	-15.9121	
1115.0	-8.6610	
1115.5	2.6184	
1116.0	3.0213	
1116.5	3.6255	
1117.0	18.7320	
1117.5	12.4880	
1118.0	2.2156	
1118.5	-62.4399	
1119.0	-106.7521	
1119.5	-87.6173	
1120.0	-75.9350	
1120.5	-65.0584	
1121.0	-63.0442	
1121.5	-34.8455	
1122.0	39.8810	
1122.5	85.4017	
1123.0	103.7308	
1123.5	111.7876	
1124.0	82.3804	
1124.5	9.0639	
1125.0	-88.2216	
1125.5	-142.8061	
1126.0	-138.3749	
1126.5	-101.1124	
1127.0	-69.4896	
1127.5	-53.7789	
1128.0	-54.7860	
1128.5	-77.9492	
1129.0	-121.8585	
1129.5	-106.7521	
1130.0	-79.1577	
1130.5	-89.2287	
1131.0	-70.4967	
1131.5	-33.6370	
1132.0	-50.7576	
1132.5	-100.5081	
1133.0	-102.5223	
1133.5	-85.8045	
1134.0	-78.3520	
1134.5	-61.0300	
1135.0	-12.8908	
1135.5	25.5802	
1136.0	40.8881	
1136.5	35.6512	
1137.0	29.0043	
1137.5	16.9192	
1138.0	-19.3362	
1138.5	-34.2412	
1139.0	-17.5235	
1139.5	40.2838	
1140.0	102.5223	
1140.5	98.6954	
1141.0	68.4825	
1141.5	58.8144	
1142.0	85.4017	
1142.5	103.3280	
1143.0	123.6713	
1143.5	124.4770	
1144.0	138.7778	
1144.5	106.3493	
1145.0	89.8329	
1145.5	27.5944	
1146.0	18.3291	
1146.5	14.3008	
1147.0	35.6512	
1147.5	60.8286	
1148.0	56.8002	
1148.5	40.2838	
1149.0	75.7336	
1149.5	94.0627	
1150.0	54.9874	
1150.5	43.3051	
1151.0	35.6512	
1151.5	26.3859	
1152.0	14.7036	
1152.5	11.4809	
1153.0	1.8128	
1153.5	-16.9192	
1154.0	-22.3575	
1154.5	-56.3973	
1155.0	-76.9421	
1155.5	-57.0016	
1156.0	-57.0016	
1156.5	-42.2980	
1157.0	-19.9405	
1157.5	-24.7745	
1158.0	-4.8341	
1158.5	15.1064	
1159.0	16.7178	
1159.5	-1.4099	
1160.0	5.4383	
1160.5	-0.6043	
1161.0	-28.4001	
1161.5	-18.3291	
1162.0	-23.5660	
1162.5	-35.0469	
1163.0	-2.4170	
1163.5	23.9689	
1164.0	19.7391	
1164.5	2.4170	
1165.0	-27.5944	
1165.5	-34.0398	
1166.0	-29.4072	
1166.5	-57.0016	
1167.0	-42.4994	
1167.5	-27.1916	
1168.0	-17.5235	
1168.5	-9.8695	
1169.0	-13.6965	
1169.5	-2.6184	
1170.0	17.3220	
1170.5	35.8526	
1171.0	75.7336	
1171.5	94.8684	
1172.0	94.6670	
1172.5	42.0966	
1173.0	-51.3619	
1173.5	-92.2499	
1174.0	-123.6713	
1174.5	-93.2570	
1175.0	3.0213	
1175.5	61.4328	
1176.0	78.3520	
1176.5	74.1222	
1177.0	53.7789	
1177.5	-10.6752	
1178.0	-47.3335	
1178.5	-63.4470	
1179.0	-103.3280	
1179.5	-111.5862	
1180.0	-101.7166	
1180.5	-105.3422	
1181.0	-124.2756	
1181.5	-99.9039	
1182.0	-76.9421	
1182.5	-75.7336	
1183.0	-73.1151	
1183.5	-66.4683	
1184.0	-62.6413	
1184.5	-31.2200	
1185.0	-10.0710	
1185.5	-7.8553	
1186.0	1.2085	
1186.5	7.4525	
1187.0	2.6184	
1187.5	1.0071	
1188.0	-8.6610	
1188.5	-5.2369	
1189.0	18.1277	
1189.5	11.0780	
1190.0	26.7887	
1190.5	37.2625	
1191.0	37.2625	
1191.5	44.3122	
1192.0	51.3619	
1192.5	31.0185	
1193.0	32.2271	
1193.5	30.4143	
1194.0	27.3930	
1194.5	14.9050	
1195.0	-11.0780	
1195.5	-83.7903	
1196.0	-143.6118	
1196.5	-143.2090	
1197.0	-104.9393	
1197.5	-96.8826	
1198.0	-79.1577	
1198.5	-60.6271	
1199.0	-12.6894	
1199.5	1.4099	
1200.0	29.4072	
1200.5	67.8782	
1201.0	80.1648	
1201.5	100.5081	
1202.0	104.1337	
1202.5	112.5933	
1203.0	124.4770	
1203.5	94.0627	
1204.0	69.4896	
1204.5	45.3193	
1205.0	40.4852	
1205.5	22.5589	
1206.0	5.0355	
1206.5	-10.2724	
1207.0	-22.1561	
1207.5	-30.8171	
1208.0	-25.1774	
1208.5	1.4099	
1209.0	41.8952	
1209.5	54.3832	
1210.0	71.9066	
1210.5	79.5605	
1211.0	98.8968	
1211.5	107.7592	
1212.0	97.6883	
1212.5	64.6555	
1213.0	18.7320	
1213.5	-13.8979	
1214.0	-17.5235	
1214.5	-60.2243	
1215.0	-60.4257	
1215.5	-57.8073	
1216.0	-74.5251	
1216.5	-60.8286	
1217.0	-32.0256	
1217.5	-23.3646	
1218.0	-19.1348	
1218.5	-21.5518	
1219.0	-12.4880	
1219.5	-25.1774	
1220.0	-24.7745	
1220.5	-47.9377	
1221.0	-5.4383	
1221.5	15.7107	
1222.0	2.2156	
1222.5	-12.2866	
1223.0	-20.7462	
1223.5	-28.6015	
1224.0	-30.6157	
1224.5	-23.1632	
1225.0	-14.5022	
1225.5	2.8199	
1226.0	9.0639	
1226.5	14.0993	
1227.0	25.1774	
1227.5	33.2341	
1228.0	24.7745	
1228.5	-5.2369	
1229.0	-10.2724	
1229.5	-17.5235	
1230.0	-17.1206	
1230.5	-11.0780	
1231.0	3.6255	
1231.5	2.0142	
1232.0	18.1277	
1232.5	31.2200	
1233.0	-9.4667	
1233.5	-39.6796	
1234.0	-34.6441	
1234.5	-39.0753	
1235.0	-32.6299	
1235.5	-25.3788	
1236.0	-19.1348	
1236.5	-13.6965	
1237.0	-13.2937	
1237.5	-8.4596	
1238.0	12.2866	
1238.5	69.8924	
1239.0	100.7095	
1239.5	95.8755	
1240.0	94.4656	
1240.5	58.4115	
1241.0	5.6397	
1241.5	16.3149	
1242.0	13.0922	
1242.5	8.0568	
1243.0	7.4525	
1243.5	-2.2156	
1244.0	-16.7178	
1244.5	-17.5235	
1245.0	-0.4028	
1245.5	-1.2085	
1246.0	15.7107	
1246.5	15.7107	
1247.0	15.7107	
1247.5	15.7107	
1248.0	15.7107	
1248.5	15.7107	
1249.0	15.7107	
1249.5	15.7107	
1250.0	15.7107	
1250.5	15.7107	
1251.0	15.7107	
1251.5	15.7107	
1252.0	15.7107	
1252.5	15.7107	
1253.0	15.7107	
1253.5	-5.0355	
1254.0	-4.4312	
1254.5	2.6184	
1255.0	-3.8270	
1255.5	3.8270	
1256.0	-0.6043	
1256.5	-4.2298	
1257.0	-11.0780	
1257.5	-12.2866	
1258.0	-1.0071	
1258.5	2.4170	
1259.0	12.8908	
1259.5	-9.0639	
1260.0	-10.6752	
1260.5	-21.9547	
1261.0	-14.0993	
1261.5	-17.9263	
1262.0	-24.3717	
1262.5	5.8412	
1263.0	12.2866	
1263.5	2.8199	
1264.0	-25.3788	
1264.5	-18.3291	
1265.0	-36.4569	
1265.5	-33.2341	
1266.0	-24.7745	
1266.5	-23.3646	
1267.0	3.2227	
1267.5	15.1064	
1268.0	14.7036	
1268.5	9.6681	
1269.0	20.9476	
1269.5	9.4667	
1270.0	-7.8553	
1270.5	-30.2129	
1271.0	-27.1916	
1271.5	-29.8100	
1272.0	-24.3717	
1272.5	-33.4356	
1273.0	-36.6583	
1273.5	-22.1561	
1274.0	9.8695	
1274.5	-18.3291	
1275.0	-6.8482	
1275.5	-8.6610	
1276.0	-22.3575	
1276.5	-22.7604	
1277.0	-19.1348	
1277.5	-44.9165	
1278.0	-38.2696	
1278.5	-40.6867	
1279.0	-35.4498	
1279.5	-23.1632	
1280.0	-21.9547	
1280.5	-19.7391	
1281.0	-38.2696	
1281.5	-25.9831	
1282.0	-37.6654	
1282.5	-57.6059	
1283.0	-50.3548	
1283.5	-30.8171	
1284.0	-24.3717	
1284.5	-23.1632	
1285.0	-21.5518	
1285.5	-30.2129	
1286.0	-15.5093	
1286.5	6.4454	
1287.0	26.9902	
1287.5	45.9235	
1288.0	52.3690	
1288.5	51.3619	
1289.0	67.0726	
1289.5	55.1888	
1290.0	68.0797	
1290.5	76.7407	
1291.0	81.9776	
1291.5	79.9634	
1292.0	73.5180	
1292.5	55.3902	
1293.0	34.6441	
1293.5	19.9405	
1294.0	4.2298	
1294.5	-9.2653	
1295.0	-18.7320	
1295.5	-24.3717	
1296.0	-4.6326	
1296.5	-6.0426	
1297.0	-9.0639	
1297.5	-6.6468	
1298.0	-5.0355	
1298.5	-11.4809	
1299.0	-21.5518	
1299.5	-33.6370	
1300.0	-44.3122	
1300.5	-33.2341	
1301.0	-34.0398	
1301.5	-42.9023	
1302.0	-35.0469	
1302.5	-35.2483	
1303.0	-31.2200	
1303.5	-46.1250	
1304.0	-26.1845	
1304.5	-10.6752	
1305.0	-6.6468	
1305.5	1.8128	
1306.0	12.8908	
1306.5	10.6752	
1307.0	23.1632	
1307.5	34.2412	
1308.0	54.5846	
1308.5	56.1959	
1309.0	34.8455	
1309.5	18.7320	
1310.0	1.0071	
1310.5	7.2511	
1311.0	10.6752	
1311.5	10.6752	
1312.0	10.6752	
1312.5	2.8199	
1313.0	-2.2156	
1313.5	-5.0355	
1314.0	-19.9405	
1314.5	-20.3433	
1315.0	-7.6539	
1315.5	-19.5377	
1316.0	-15.3078	
1316.5	-21.5518	
1317.0	-15.9121	
1317.5	-15.9121	
1318.0	-24.3717	
1318.5	-20.3433	
1319.0	-17.5235	
1319.5	-23.7675	
1320.0	-31.8242	
1320.5	-28.1987	
1321.0	-5.4383	
1321.5	1.8128	
1322.0	2.0142	
1322.5	4.2298	
1323.0	9.6681	
1323.5	7.4525	
1324.0	2.0142	
1324.5	7.2511	
1325.0	-7.8553	
1325.5	11.0780	
1326.0	4.6326	
1326.5	-3.4241	
1327.0	-10.2724	
1327.5	-8.6610	
1328.0	1.8128	
1328.5	-9.2653	
1329.0	-13.0922	
1329.5	3.6255	
1330.0	-23.5660	
1330.5	-13.0922	
1331.0	-12.0851	
1331.5	-12.0851	
1332.0	-2.4170	
1332.5	-12.6894	
1333.0	-6.4454	
1333.5	-17.9263	
1334.0	-2.2156	
1334.5	8.4596	
1335.0	4.0284	
1335.5	7.4525	
1336.0	6.4454	
1336.5	5.0355	
1337.0	8.2582	
1337.5	14.3008	
1338.0	10.2724	
1338.5	11.4809	
1339.0	2.4170	
1339.5	-12.6894	
1340.0	-2.6184	
1340.5	-5.8412	
1341.0	-5.0355	
1341.5	-0.4028	
1342.0	-11.0780	
1342.5	-14.3008	
1343.0	-7.6539	
1343.5	-10.0710	
1344.0	-7.4525	
1344.5	-7.4525	
1345.0	-7.4525	
1345.5	-7.4525	
1346.0	-7.4525	
1346.5	-7.4525	
1347.0	-7.4525	
1347.5	-7.4525	
1348.0	-7.4525	
1348.5	-7.4525	
1349.0	-7.4525	
1349.5	-7.4525	
1350.0	-7.4525	
1350.5	-7.4525	
1351.0	-7.4525	
1351.5	6.8482	
1352.0	-4.4312	
1352.5	1.6114	
1353.0	-8.8624	
1353.5	7.4525	
1354.0	-2.0142	
1354.5	4.6326	
1355.0	-9.2653	
1355.5	-19.5377	
1356.0	-5.4383	
1356.5	5.0355	
1357.0	-1.8128	
1357.5	-22.1561	
1358.0	-12.4880	
1358.5	-29.2058	
1359.0	-33.0327	
1359.5	-20.9476	
1360.0	-20.3433	
1360.5	-8.4596	
1361.0	-5.0355	
1361.5	-2.2156	
1362.0	-2.0142	
1362.5	-5.2369	
1363.0	-3.6255	
1363.5	-7.2511	
1364.0	-10.0710	
1364.5	-17.7249	
1365.0	-9.2653	
1365.5	-4.6326	
1366.0	-15.1064	
1366.5	-18.7320	
1367.0	-18.9334	
1367.5	-9.0639	
1368.0	-18.3291	
1368.5	-13.4951	
1369.0	-7.0497	
1369.5	-6.4454	
1370.0	0.0000	
1370.5	-15.3078	
1371.0	-10.4738	
1371.5	7.4525	
1372.0	-11.4809	
1372.5	-11.8837	
1373.0	18.1277	
1373.5	6.4454	
1374.0	2.0142	
1374.5	-6.0426	
1375.0	-8.6610	
1375.5	-9.2653	
1376.0	-1.2085	
1376.5	-3.8270	
1377.0	-1.8128	
1377.5	-5.8412	
1378.0	-6.2440	
1378.5	-11.4809	
1379.0	1.8128	
1379.5	-13.4951	
1380.0	-7.8553	
1380.5	0.6043	
1381.0	-3.4241	
1381.5	-11.6823	
1382.0	0.6043	
1382.5	-2.6184	
1383.0	-10.4738	
1383.5	-9.0639	
1384.0	-14.0993	
1384.5	-21.3504	
1385.0	-8.2582	
1385.5	-13.2937	
1386.0	-12.2866	
1386.5	-12.8908	
1387.0	-7.0497	
1387.5	-24.7745	
1388.0	-36.0540	
1388.5	-24.3717	
1389.0	-14.3008	
1389.5	-19.9405	
1390.0	-15.7107	
1390.5	-17.1206	
1391.0	-16.1135	
1391.5	-10.8766	
1392.0	1.0071	
1392.5	-11.4809	
1393.0	-16.7178	
1393.5	-16.3149	
1394.0	-11.2795	
1394.5	-9.0639	
1395.0	-10.6752	
1395.5	-10.2724	
1396.0	-3.2227	
1396.5	13.0922	
1397.0	6.0426	
1397.5	2.6184	
1398.0	0.6043	
1398.5	-21.1490	
1399.0	-15.1064	
1399.5	-12.2866	
1400.0	-8.4596	
1400.5	5.4383	
1401.0	0.8057	
1401.5	1.8128	
1402.0	3.8270	
1402.5	6.6468	
1403.0	-11.0780	
1403.5	-17.9263	
1404.0	-27.1916	
1404.5	-19.3362	
1405.0	-24.7745	
1405.5	-16.7178	
1406.0	-10.6752	
1406.5	-8.2582	
1407.0	-14.7036	
1407.5	-32.6299	
1408.0	-42.9023	
1408.5	-17.3220	
1409.0	-8.2582	
1409.5	-18.9334	
1410.0	-9.6681	
1410.5	1.0071	
1411.0	-0.4028	
1411.5	0.2014	
1412.0	15.1064	
1412.5	4.6326	
1413.0	4.2298	
1413.5	3.6255	
1414.0	7.4525	
1414.5	8.0568	
1415.0	4.2298	
1415.5	9.2653	
1416.0	-7.6539	
1416.5	1.0071	
1417.0	-2.8199	
1417.5	4.0284	
1418.0	-12.2866	
1418.5	-1.6114	
1419.0	4.2298	
1419.5	-8.6610	
1420.0	-28.4001	
1420.5	-18.7320	
1421.0	-19.9405	
1421.5	-20.3433	
1422.0	-22.5589	
1422.5	-17.9263	
1423.0	-9.0639	
1423.5	-12.8908	
1424.0	-2.8199	
1424.5	-10.8766	
1425.0	-28.4001	
1425.5	-5.2369	
1426.0	-2.6184	
1426.5	9.6681	
1427.0	-3.4241	
1427.5	3.4241	
1428.0	-1.8128	
1428.5	13.0922	
1429.0	11.8837	
1429.5	28.4001	
1430.0	19.5377	
1430.5	12.2866	
1431.0	-1.8128	
1431.5	8.4596	
1432.0	15.5093	
1432.5	17.7249	
1433.0	10.6752	
1433.5	5.4383	
1434.0	-1.4099	
1434.5	3.8270	
1435.0	1.8128	
1435.5	0.2014	
1436.0	0.2014	
1436.5	8.0568	
1437.0	7.2511	
1437.5	-1.0071	
1438.0	-6.8482	
1438.5	-10.8766	
1439.0	-5.6397	
1439.5	2.6184	
1440.0	10.0710	
1440.5	10.8766	
1441.0	-12.6894	
1441.5	1.8128	
1442.0	-2.6184	
1442.5	-2.6184	
1443.0	-2.6184	
1443.5	-2.6184	
1444.0	-2.6184	
1444.5	-2.6184	
1445.0	-2.6184	
1445.5	-2.6184	
1446.0	-2.6184	
1446.5	-2.6184	
1447.0	-2.6184	
1447.5	-2.6184	
1448.0	-2.6184	
1448.5	-2.6184	
1449.0	-2.6184	
1449.5	3.0213	
1450.0	4.6326	
1450.5	5.4383	
1451.0	8.4596	
1451.5	11.4809	
1452.0	9.2653	
1452.5	13.8979	
1453.0	8.8624	
1453.5	6.0426	
1454.0	14.3008	
1454.5	-3.0213	
1455.0	2.2156	
1455.5	0.2014	
1456.0	5.2369	
1456.5	-2.6184	
1457.0	-1.4099	
1457.5	2.6184	
1458.0	0.2014	
1458.5	3.4241	
1459.0	-3.4241	
1459.5	8.0568	
1460.0	3.4241	
1460.5	14.5022	
1461.0	7.4525	
1461.5	13.8979	
1462.0	9.0639	
1462.5	-4.8341	
1463.0	-2.2156	
1463.5	-1.8128	
1464.0	1.2085	
1464.5	-4.4312	
1465.0	4.6326	
1465.5	-6.2440	
1466.0	-13.4951	
1466.5	-3.8270	
1467.0	-1.6114	
1467.5	-5.0355	
1468.0	-9.4667	
1468.5	2.4170	
1469.0	-3.8270	
1469.5	1.8128	
1470.0	-6.0426	
1470.5	-7.4525	
1471.0	11.2795	
1471.5	4.2298	
1472.0	1.0071	
1472.5	1.8128	
1473.0	0.8057	
1473.5	-0.6043	
1474.0	11.4809	
1474.5	6.6468	
1475.0	9.4667	
1475.5	9.2653	
1476.0	2.4170	
1476.5	7.0497	
1477.0	-8.2582	
1477.5	13.6965	
1478.0	6.6468	
1478.5	14.0993	
1479.0	15.1064	
1479.5	13.0922	
1480.0	15.3078	
1480.5	18.7320	
1481.0	21.9547	
1481.5	7.0497	
1482.0	-3.8270	
1482.5	-30.0114	
1483.0	-6.2440	
1483.5	-15.9121	
1484.0	-22.3575	
1484.5	-30.0114	
1485.0	-26.9902	
1485.5	-30.2129	
1486.0	-34.2412	
1486.5	-24.1703	
1487.0	-19.3362	
1487.5	-10.0710	
1488.0	16.7178	
1488.5	6.4454	
1489.0	0.6043	
1489.5	-3.2227	
1490.0	-10.2724	
1490.5	10.2724	
1491.0	5.4383	
1491.5	4.8341	
1492.0	1.0071	
1492.5	-7.8553	
1493.0	1.0071	
1493.5	5.6397	
1494.0	-11.6823	
1494.5	6.0426	
1495.0	1.8128	
1495.5	-2.2156	
1496.0	6.6468	
1496.5	8.6610	
1497.0	-2.4170	
1497.5	-1.2085	
1498.0	-4.0284	
1498.5	5.8412	
1499.0	-5.8412	
1499.5	-3.6255	
1500.0	-8.2582	
1500.5	-8.2582	
1501.0	5.8412	
1501.5	-2.4170	
1502.0	5.8412	
1502.5	2.6184	
1503.0	-0.4028	
1503.5	4.4312	
1504.0	2.4170	
1504.5	-5.4383	
1505.0	-1.8128	
1505.5	-15.5093	
1506.0	-6.8482	
1506.5	-12.6894	
1507.0	-29.4072	
1507.5	-17.9263	
1508.0	-15.3078	
1508.5	-20.1419	
1509.0	-10.6752	
1509.5	-18.7320	
1510.0	-21.7533	
1510.5	-11.4809	
1511.0	-13.0922	
1511.5	-19.9405	
1512.0	-1.8128	
1512.5	-4.4312	
1513.0	15.5093	
1513.5	20.5447	
1514.0	12.2866	
1514.5	10.6752	
1515.0	4.6326	
1515.5	7.4525	
1516.0	1.4099	
1516.5	4.0284	
1517.0	11.4809	
1517.5	1.2085	
1518.0	-2.6184	
1518.5	-4.8341	
1519.0	-9.4667	
1519.5	-3.0213	
1520.0	-4.6326	
1520.5	0.2014	
1521.0	8.6610	
1521.5	16.7178	
1522.0	7.8553	
1522.5	6.4454	
1523.0	24.5731	
1523.5	13.2937	
1524.0	11.0780	
1524.5	14.7036	
1525.0	3.6255	
1525.5	-7.4525	
1526.0	-2.6184	
1526.5	6.8482	
1527.0	4.6326	
1527.5	1.2085	
1528.0	4.2298	
1528.5	-1.2085	
1529.0	-8.8624	
1529.5	-15.7107	
1530.0	-8.6610	
1530.5	-0.6043	
1531.0	-14.9050	
1531.5	-0.6043	
1532.0	-3.8270	
1532.5	4.2298	
1533.0	-16.5164	
1533.5	-4.8341	
1534.0	1.4099	
1534.5	3.4241	
1535.0	-0.2014	
1535.5	0.8057	
1536.0	-2.6184	
1536.5	-1.8128	
1537.0	-12.4880	
1537.5	24.1703	
1538.0	-7.6539	
1538.5	5.8412	
1539.0	-8.2582	
1539.5	14.3008	
1540.0	-17.5235	
1540.5	-7.2511	
1541.0	-3.4241	
1541.5	0.2014	
1542.0	-8.6610	
1542.5	0.4028	
1543.0	4.6326	
1543.5	-1.6114	
1544.0	7.8553	
1544.5	14.3008	
1545.0	8.2582	
1545.5	11.0780	
1546.0	2.8199	
1546.5	17.1206	
1547.0	3.4241	
1547.5	4.8341	
1548.0	-9.4667	
1548.5	-10.6752	
1549.0	-5.0355	
1549.5	5.4383	
1550.0	2.8199	
1550.5	11.0780	
1551.0	-4.4312	
1551.5	4.8341	
1552.0	-3.2227	
1552.5	4.8341	
1553.0	8.0568	
1553.5	-3.8270	
1554.0	10.6752	
1554.5	10.6752	
1555.0	10.6752	
1555.5	10.6752	
1556.0	10.6752	
1556.5	10.6752	
1557.0	10.6752	
1557.5	10.6752	
1558.0	10.6752	
1558.5	10.6752	
1559.0	10.6752	
1559.5	10.6752	
1560.0	10.6752	
1560.5	10.6752	
1561.0	10.6752	
1561.5	-3.6255	
1562.0	-13.2937	
1562.5	-21.1490	
1563.0	-5.6397	
1563.5	-16.7178	
1564.0	-19.3362	
1564.5	-12.2866	
1565.0	-15.7107	
1565.5	0.4028	
1566.0	12.2866	
1566.5	14.3008	
1567.0	8.0568	
1567.5	10.6752	
1568.0	-1.6114	
1568.5	10.2724	
1569.0	8.6610	
1569.5	-2.0142	
1570.0	-4.6326	
1570.5	-5.2369	
1571.0	-2.4170	
1571.5	5.2369	
1572.0	0.6043	
1572.5	-16.9192	
1573.0	-10.2724	
1573.5	-1.8128	
1574.0	0.0000	
1574.5	3.0213	
1575.0	-6.4454	
1575.5	-2.2156	
1576.0	2.4170	
1576.5	-5.2369	
1577.0	23.5660	
1577.5	-5.8412	
1578.0	-5.4383	
1578.5	-7.2511	
1579.0	-7.0497	
1579.5	-5.4383	
1580.0	1.4099	
1580.5	4.0284	
1581.0	17.5235	
1581.5	-1.6114	
1582.0	-3.6255	
1582.5	-13.8979	
1583.0	7.8553	
1583.5	12.8908	
1584.0	0.2014	
1584.5	9.4667	
1585.0	-3.4241	
1585.5	-0.8057	
1586.0	-17.5235	
1586.5	2.6184	
1587.0	5.4383	
1587.5	13.2937	
1588.0	12.4880	
1588.5	0.6043	
1589.0	-9.2653	
1589.5	-1.8128	
1590.0	-21.3504	
1590.5	-3.4241	
1591.0	-6.2440	
1591.5	-10.6752	
1592.0	-13.4951	
1592.5	-3.0213	
1593.0	-2.2156	
1593.5	-11.6823	
1594.0	-4.4312	
1594.5	-4.0284	
1595.0	2.6184	
1595.5	7.8553	
1596.0	16.9192	
1596.5	2.6184	
1597.0	-1.0071	
1597.5	-8.2582	
1598.0	7.2511	
1598.5	-2.6184	
1599.0	4.2298	
1599.5	4.2298	
1600.0	16.3149	
1600.5	8.2582	
1601.0	3.4241	
1601.5	-4.6326	
1602.0	-8.2582	
1602.5	3.4241	
1603.0	-5.0355	
1603.5	7.0497	
1604.0	1.0071	
1604.5	-8.2582	
1605.0	-7.8553	
1605.5	13.4951	
1606.0	1.6114	
1606.5	-4.2298	
1607.0	-8.0568	
1607.5	-14.7036	
1608.0	-4.0284	
1608.5	-2.2156	
1609.0	0.0000	
1609.5	-19.7391	
1610.0	-11.4809	
1610.5	-5.0355	
1611.0	-11.4809	
1611.5	-7.6539	
1612.0	-7.8553	
1612.5	-9.4667	
1613.0	-12.6894	
1613.5	-8.4596	
1614.0	-0.6043	
1614.5	-5.6397	
1615.0	-2.8199	
1615.5	0.4028	
1616.0	2.8199	
1616.5	-2.2156	
1617.0	5.6397	
1617.5	-8.4596	
1618.0	-14.0993	
1618.5	-10.2724	
1619.0	-13.8979	
1619.5	-7.0497	
1620.0	3.0213	
1620.5	-5.0355	
1621.0	4.2298	
1621.5	4.2298	
1622.0	-4.8341	
1622.5	-8.2582	
1623.0	-3.4241	
1623.5	-1.6114	
1624.0	-3.2227	
1624.5	7.8553	
1625.0	14.5022	
1625.5	7.4525	
1626.0	4.0284	
1626.5	10.6752	
1627.0	-7.8553	
1627.5	-3.4241	
1628.0	-3.0213	
1628.5	-11.2795	
1629.0	8.2582	
1629.5	-11.6823	
1630.0	-6.6468	
1630.5	-14.7036	
1631.0	-7.4525	
1631.5	-1.4099	
1632.0	-7.4525	
1632.5	-3.6255	
1633.0	0.6043	
1633.5	-2.8199	
1634.0	-8.2582	
1634.5	-4.2298	
1635.0	-24.9760	
1635.5	-19.3362	
1636.0	-9.4667	
1636.5	-13.0922	
1637.0	-21.1490	
1637.5	-28.4001	
1638.0	-21.9547	
1638.5	-24.7745	
1639.0	-32.6299	
1639.5	-14.0993	
1640.0	-20.7462	
1640.5	-25.3788	
1641.0	-16.3149	
1641.5	-8.6610	
1642.0	-2.8199	
1642.5	1.8128	
1643.0	8.4596	
1643.5	8.6610	
1644.0	-5.0355	
1644.5	0.2014	
1645.0	8.2582	
1645.5	10.0710	
1646.0	17.7249	
1646.5	-14.7036	
1647.0	-10.0710	
1647.5	-9.6681	
1648.0	-16.9192	
1648.5	-2.2156	
1649.0	-1.0071	
1649.5	-4.6326	
1650.0	3.4241	
1650.5	4.6326	
1651.0	-6.4454	
1651.5	-2.6184	
1652.0	4.0284	
1652.5	4.0284	
1653.0	4.0284	
1653.5	4.0284	
1654.0	4.0284	
1654.5	4.0284	
1655.0	4.0284	
1655.5	4.0284	
1656.0	4.0284	
1656.5	4.0284	
1657.0	4.0284	
1657.5	4.0284	
1658.0	4.0284	
1658.5	4.0284	
1659.0	4.0284	
1659.5	2.8199	
1660.0	6.0426	
1660.5	3.2227	
1661.0	16.5164	
1661.5	7.4525	
1662.0	-1.4099	
1662.5	3.0213	
1663.0	3.4241	
1663.5	4.2298	
1664.0	9.8695	
1664.5	-11.6823	
1665.0	-0.4028	
1665.5	-4.2298	
1666.0	5.4383	
1666.5	11.6823	
1667.0	9.6681	
1667.5	2.0142	
1668.0	-5.2369	
1668.5	-10.0710	
1669.0	-9.0639	
1669.5	-9.0639	
1670.0	-10.6752	
1670.5	-8.6610	
1671.0	-1.8128	
1671.5	-10.0710	
1672.0	-4.4312	
1672.5	-2.0142	
1673.0	-2.8199	
1673.5	0.4028	
1674.0	6.4454	
1674.5	5.8412	
1675.0	6.0426	
1675.5	2.8199	
1676.0	-10.6752	
1676.5	-12.6894	
1677.0	-1.6114	
1677.5	-13.2937	
1678.0	-7.8553	
1678.5	-12.6894	
1679.0	1.4099	
1679.5	-4.6326	
1680.0	0.4028	
1680.5	5.2369	
1681.0	6.2440	
1681.5	3.8270	
1682.0	-2.6184	
1682.5	-3.2227	
1683.0	-4.4312	
1683.5	-0.2014	
1684.0	-14.9050	
1684.5	-17.1206	
1685.0	-25.3788	
1685.5	-24.7745	
1686.0	-20.3433	
1686.5	-16.7178	
1687.0	-20.7462	
1687.5	-9.6681	
1688.0	-8.6610	
1688.5	1.8128	
1689.0	-0.8057	
1689.5	1.0071	
1690.0	-0.2014	
1690.5	4.6326	
1691.0	11.8837	
1691.5	6.6468	
1692.0	0.8057	
1692.5	-18.7320	
1693.0	-10.2724	
1693.5	-9.4667	
1694.0	-12.6894	
1694.5	-11.4809	
1695.0	-20.1419	
1695.5	-10.8766	
1696.0	-1.8128	
1696.5	3.6255	
1697.0	3.8270	
1697.5	11.0780	
1698.0	-0.2014	
1698.5	27.5944	
1699.0	14.0993	
1699.5	11.8837	
1700.0	14.7036	
1700.5	12.2866	
1701.0	1.4099	
1701.5	-8.6610	
1702.0	-3.4241	
1702.5	-2.8199	
1703.0	-10.0710	
1703.5	-7.0497	
1704.0	-14.3008	
1704.5	-0.6043	
1705.0	-10.2724	
1705.5	-16.3149	
1706.0	-11.6823	
1706.5	4.2298	
1707.0	-7.0497	
1707.5	0.4028	
1708.0	-20.1419	
1708.5	-9.0639	
1709.0	5.4383	
1709.5	18.7320	
1710.0	6.0426	
1710.5	8.2582	
1711.0	21.1490	
1711.5	6.4454	
1712.0	10.2724	
1712.5	11.8837	
1713.0	14.9050	
1713.5	3.0213	
1714.0	-2.2156	
1714.5	13.0922	
1715.0	4.2298	
1715.5	-0.2014	
1716.0	8.2582	
1716.5	7.0497	
1717.0	4.4312	
1717.5	1.0071	
1718.0	-0.2014	
1718.5	-2.4170	
1719.0	-3.0213	
1719.5	-2.8199	
1720.0	-1.4099	
1720.5	-7.4525	
1721.0	7.8553	
1721.5	2.6184	
1722.0	8.0568	
1722.5	-0.2014	
1723.0	-10.2724	
1723.5	-2.6184	
1724.0	1.8128	
1724.5	-2.0142	
1725.0	8.8624	
1725.5	4.4312	
1726.0	8.6610	
1726.5	-4.6326	
1727.0	-10.2724	
1727.5	-0.4028	
1728.0	2.8199	
1728.5	-13.8979	
1729.0	-8.2582	
1729.5	14.3008	
1730.0	-1.8128	
1730.5	-1.0071	
1731.0	3.8270	
1731.5	1.8128	
1732.0	2.0142	
1732.5	-1.8128	
1733.0	1.0071	
1733.5	1.0071	
1734.0	-7.2511	
1734.5	-9.4667	
1735.0	-7.2511	
1735.5	-9.4667	
1736.0	-14.9050	
1736.5	11.2795	
1737.0	-9.2653	
1737.5	-3.2227	
1738.0	-13.6965	
1738.5	-4.6326	
1739.0	1.6114	
1739.5	5.4383	
1740.0	6.4454	
1740.5	10.8766	
1741.0	18.9334	
1741.5	11.2795	
1742.0	19.7391	
1742.5	23.3646	
1743.0	29.4072	
1743.5	13.8979	
1744.0	-1.2085	
1744.5	0.4028	
1745.0	-9.0639	
1745.5	-6.8482	
1746.0	-4.6326	
1746.5	-7.0497	
1747.0	-6.2440	
1747.5	2.0142	
1748.0	6.2440	
1748.5	-19.5377	
1749.0	12.6894	
1749.5	27.9973	
1750.0	14.5022	
1750.5	14.5022	
1751.0	14.5022	
1751.5	14.5022	
1752.0	14.5022	
1752.5	14.5022	
1753.0	14.5022	
1753.5	14.5022	
1754.0	14.5022	
1754.5	14.5022	
1755.0	14.5022	
1755.5	14.5022	
1756.0	14.5022	
1756.5	14.5022	
1757.0	14.5022	
1757.5	-1.8128	
1758.0	-13.4951	
1758.5	-10.6752	
1759.0	-24.7745	
1759.5	-17.9263	
1760.0	-14.7036	
1760.5	-2.8199	
1761.0	5.8412	
1761.5	5.8412	
1762.0	-5.8412	
1762.5	5.8412	
1763.0	-1.4099	
1763.5	7.2511	
1764.0	6.4454	
1764.5	-7.0497	
1765.0	14.3008	
1765.5	11.8837	
1766.0	5.0355	
1766.5	2.0142	
1767.0	6.2440	
1767.5	5.4383	
1768.0	-5.0355	
1768.5	12.4880	
1769.0	14.9050	
1769.5	-13.8979	
1770.0	-11.8837	
1770.5	-20.9476	
1771.0	-19.3362	
1771.5	-11.8837	
1772.0	-2.0142	
1772.5	3.8270	
1773.0	-1.8128	
1773.5	-5.0355	
1774.0	-2.6184	
1774.5	-1.4099	
1775.0	-0.2014	
1775.5	-7.6539	
1776.0	-13.6965	
1776.5	-3.8270	
1777.0	-6.6468	
1777.5	-13.4951	
1778.0	-16.3149	
1778.5	-15.9121	
1779.0	-18.3291	
1779.5	4.2298	
1780.0	-7.4525	
1780.5	0.0000	
1781.0	-1.6114	
1781.5	-2.4170	
1782.0	3.0213	
1782.5	2.6184	
1783.0	-12.6894	
1783.5	-0.8057	
1784.0	-2.4170	
1784.5	18.7320	
1785.0	-7.6539	
1785.5	-1.4099	
1786.0	4.4312	
1786.5	2.8199	
1787.0	-2.4170	
1787.5	1.4099	
1788.0	5.0355	
1788.5	16.3149	
1789.0	11.0780	
1789.5	-10.2724	
1790.0	-16.7178	
1790.5	-16.5164	
1791.0	-0.2014	
1791.5	-11.4809	
1792.0	-18.7320	
1792.5	-10.2724	
1793.0	4.6326	
1793.5	8.2582	
1794.0	-12.0851	
1794.5	-11.6823	
1795.0	-10.6752	
1795.5	-11.6823	
1796.0	-31.2200	
1796.5	-22.3575	
1797.0	-15.1064	
1797.5	-8.6610	
1798.0	-17.7249	
1798.5	-16.9192	
1799.0	-7.0497	
1799.5	-11.4809	
1800.0	-13.4951	
1800.5	11.4809	
1801.0	17.1206	
1801.5	34.8455	
1802.0	35.0469	
1802.5	32.8313	
1803.0	17.5235	
1803.5	9.0639	
1804.0	4.0284	
1804.5	13.4951	
1805.0	11.0780	
1805.5	9.4667	
1806.0	3.8270	
1806.5	-1.4099	
1807.0	-17.3220	
1807.5	-2.2156	
1808.0	4.6326	
1808.5	-4.0284	
1809.0	-7.2511	
1809.5	-2.2156	
1810.0	-3.0213	
1810.5	0.2014	
1811.0	-4.4312	
1811.5	4.2298	
1812.0	-6.0426	
1812.5	-5.2369	
1813.0	-18.3291	
1813.5	-18.1277	
1814.0	-13.4951	
1814.5	-21.1490	
1815.0	-27.9973	
1815.5	-11.0780	
1816.0	-18.3291	
1816.5	-1.8128	
1817.0	-7.0497	
1817.5	-5.4383	
1818.0	1.2085	
1818.5	-10.4738	
1819.0	-14.7036	
1819.5	-11.4809	
1820.0	-5.0355	
1820.5	9.6681	
1821.0	7.4525	
1821.5	14.0993	
1822.0	-6.0426	
1822.5	5.0355	
1823.0	-4.2298	
1823.5	0.8057	
1824.0	-17.5235	
1824.5	-12.2866	
1825.0	-22.9618	
1825.5	-14.9050	
1826.0	-7.8553	
1826.5	-10.4738	
1827.0	1.0071	
1827.5	-9.8695	
1828.0	-18.5306	
1828.5	-26.1845	
1829.0	-20.9476	
1829.5	-17.7249	
1830.0	-7.4525	
1830.5	-7.6539	
1831.0	-3.0213	
1831.5	-1.4099	
1832.0	10.0710	
1832.5	12.6894	
1833.0	12.4880	
1833.5	25.5802	
1834.0	34.0398	
1834.5	33.6370	
1835.0	43.7079	
1835.5	41.8952	
1836.0	32.2271	
1836.5	13.8979	
1837.0	13.8979	
1837.5	4.6326	
1838.0	5.2369	
1838.5	14.5022	
1839.0	1.0071	
1839.5	2.2156	
1840.0	1.2085	
1840.5	11.6823	
1841.0	5.6397	
1841.5	10.0710	
1842.0	2.0142	
1842.5	-7.0497	
1843.0	9.8695	
1843.5	22.7604	
1844.0	13.6965	
1844.5	16.5164	
1845.0	-2.4170	
1845.5	-27.7958	
1846.0	-53.5775	
1846.5	-54.3832	
1847.0	-54.1817	
1847.5	-71.3024	
1848.0	-78.5534	
1848.5	-87.0130	
1849.0	-73.1151	
1849.5	-91.6457	
1850.0	-100.1053	
1850.5	-51.3619	
1851.0	10.2724	
1851.5	20.3433	
1852.0	32.4285	
1852.5	53.5775	
1853.0	52.5704	
1853.5	105.7450	
1854.0	163.3509	
1854.5	140.5905	
1855.0	148.8487	
1855.5	160.5310	
1856.0	140.9934	
1856.5	61.4328	
1857.0	-4.4312	
1857.5	-10.8766	
1858.0	-26.3859	
1858.5	-57.6059	
1859.0	-80.3662	
1859.5	-108.9677	
1860.0	-117.4273	
1860.5	-138.3749	
1861.0	-136.1593	
1861.5	-137.3678	
1862.0	-109.9748	
1862.5	-77.5463	
1863.0	-58.2101	
1863.5	-42.7008	
1864.0	-35.2483	
1864.5	-62.0371	
1865.0	-52.9732	
1865.5	-35.2483	
1866.0	-7.8553	
1866.5	38.6725	
1867.0	68.8853	
1867.5	86.4088	
1868.0	102.5223	
1868.5	89.8329	
1869.0	53.3761	
1869.5	43.1037	
1870.0	9.0639	
1870.5	-5.0355	
1871.0	59.8215	
1871.5	147.2374	
1872.0	226.5965	
1872.5	277.7569	
1873.0	263.0533	
1873.5	208.6702	
1874.0	112.7947	
1874.5	4.2298	
1875.0	-64.0513	
1875.5	-122.8656	
1876.0	-195.9808	
1876.5	-244.9256	
1877.0	-276.9512	
1877.5	-282.9938	
1878.0	-300.7187	
1878.5	-251.9753	
1879.0	-156.0998	
1879.5	-79.1577	
1880.0	-15.9121	
1880.5	13.0922	
1881.0	46.5278	
1881.5	32.0256	
1882.0	-10.6752	
1882.5	4.6326	
1883.0	46.7292	
1883.5	91.0414	
1884.0	125.0813	
1884.5	158.5168	
1885.0	188.1254	
1885.5	202.6276	
1886.0	148.6473	
1886.5	89.2287	
1887.0	44.1108	
1887.5	16.9192	
1888.0	14.3008	
1888.5	17.5235	
1889.0	27.5944	
1889.5	34.4427	
1890.0	29.0043	
1890.5	25.1774	
1891.0	42.4994	
1891.5	63.2456	
1892.0	87.2145	
1892.5	116.4202	
1893.0	111.7876	
1893.5	121.4557	
1894.0	114.6075	
1894.5	106.9535	
1895.0	64.6555	
1895.5	40.2838	
1896.0	48.7434	
1896.5	68.6839	
1897.0	79.9634	
1897.5	64.8569	
1898.0	17.5235	
1898.5	-97.0840	
1899.0	-126.6926	
1899.5	-115.2117	
1900.0	-97.6883	
1900.5	-83.3875	
1901.0	-86.8116	
1901.5	-79.9634	
1902.0	-104.3351	
1902.5	-86.4088	
1903.0	-61.8357	
1903.5	-36.8597	
1904.0	-2.0142	
1904.5	70.0938	
1905.0	87.2145	
1905.5	41.4923	
1906.0	36.8597	
1906.5	76.7407	
1907.0	64.6555	
1907.5	44.9165	
1908.0	10.8766	
1908.5	-36.0540	
1909.0	-78.7549	
1909.5	-118.4344	
1910.0	-160.5310	
1910.5	-106.1479	
1911.0	-20.9476	
1911.5	-12.0851	
1912.0	-42.4994	
1912.5	-58.6130	
1913.0	-76.3378	
1913.5	-65.8640	
1914.0	-60.6271	
1914.5	-28.8029	
1915.0	61.2314	
1915.5	142.4033	
1916.0	135.3536	
1916.5	92.4514	
1917.0	31.6228	
1917.5	19.9405	
1918.0	33.6370	
1918.5	62.4399	
1919.0	117.4273	
1919.5	136.3607	
1920.0	104.3351	
1920.5	76.3378	
1921.0	-2.4170	
1921.5	-90.0343	
1922.0	-128.9082	
1922.5	-139.9863	
1923.0	-101.1124	
1923.5	-77.7478	
1924.0	-29.2058	
1924.5	46.5278	
1925.0	94.4656	
1925.5	101.7166	
1926.0	108.5649	
1926.5	115.4131	
1927.0	123.4699	
1927.5	162.3438	
1928.0	184.4999	
1928.5	148.6473	
1929.0	97.2854	
1929.5	18.9334	
1930.0	-64.8569	
1930.5	-128.7068	
1931.0	-151.2657	
1931.5	-172.4147	
1932.0	-174.6303	
1932.5	-65.0584	
1933.0	56.1959	
1933.5	101.7166	
1934.0	120.6500	
1934.5	54.3832	
1935.0	-47.9377	
1935.5	-76.7407	
1936.0	-112.5933	
1936.5	-195.3765	
1937.0	-234.2504	
1937.5	-150.8629	
1938.0	-55.1888	
1938.5	37.6654	
1939.0	39.6796	
1939.5	30.4143	
1940.0	20.5447	
1940.5	17.5235	
1941.0	-7.6539	
1941.5	-17.9263	
1942.0	-10.0710	
1942.5	-39.2767	
1943.0	-93.6599	
1943.5	-155.0927	
1944.0	-227.8050	
1944.5	-256.4065	
1945.0	-246.3355	
1945.5	-211.6915	
1946.0	-143.2090	
1946.5	-40.0824	
1947.0	47.9377	
1947.5	81.5747	
1948.0	84.7974	
1948.5	76.1364	
1949.0	80.7691	
1949.5	116.4202	
1950.0	188.7297	
1950.5	207.4617	
1951.0	171.2062	
1951.5	112.9961	
1952.0	30.0114	
1952.5	-8.8624	
1953.0	-54.1817	
1953.5	-93.6599	
1954.0	-84.3946	
1954.5	-78.7549	
1955.0	-97.8897	
1955.5	-50.1534	
1956.0	24.7745	
1956.5	91.8471	
1957.0	94.8684	
1957.5	83.3875	
1958.0	-7.0497	
1958.5	-63.4470	
1959.0	-86.2074	
1959.5	-90.0343	
1960.0	-72.7123	
1960.5	-68.6839	
1961.0	-109.3706	
1961.5	-146.4317	
1962.0	-144.4175	
1962.5	-103.3280	
1963.0	-44.3122	
1963.5	-36.8597	
1964.0	-72.9137	
1964.5	-88.0201	
1965.0	-59.4186	
1965.5	-73.9208	
1966.0	-52.3690	
1966.5	-56.1959	
1967.0	-50.5562	
1967.5	-20.3433	
1968.0	30.2129	
1968.5	108.5649	
1969.0	197.1893	
1969.5	252.1767	
1970.0	247.1412	
1970.5	181.0758	
1971.0	112.1904	
1971.5	24.9760	
1972.0	-26.3859	
1972.5	-93.8613	
1973.0	-143.0076	
1973.5	-123.6713	
1974.0	-89.4301	
1974.5	-44.9165	
1975.0	-21.1490	
1975.5	-6.6468	
1976.0	3.0213	
1976.5	33.0327	
1977.0	32.0256	
1977.5	26.9902	
1978.0	22.1561	
1978.5	25.3788	
1979.0	43.9094	
1979.5	55.1888	
1980.0	64.6555	
1980.5	91.8471	
1981.0	95.2712	
1981.5	94.4656	
1982.0	40.6867	
1982.5	1.4099	
1983.0	-33.6370	
1983.5	-14.7036	
1984.0	37.2625	
1984.5	53.1746	
1985.0	51.3619	
1985.5	11.6823	
1986.0	-4.0284	
1986.5	-23.5660	
1987.0	-26.3859	
1987.5	-23.5660	
1988.0	-26.1845	
1988.5	-46.1250	
1989.0	-86.8116	
1989.5	-110.1762	
1990.0	-104.9393	
1990.5	-85.4017	
1991.0	-31.0185	
1991.5	13.2937	
1992.0	84.3946	
1992.5	89.6315	
1993.0	16.1135	
1993.5	-40.8881	
1994.0	-84.9989	
1994.5	-115.0103	
1995.0	-116.6217	
1995.5	-145.4246	
1996.0	-168.3864	
1996.5	-145.0217	
1997.0	-146.2303	
1997.5	-162.5452	
1998.0	-144.8203	
1998.5	-127.4983	
1999.0	-116.2188	
1999.5	-75.1293	
2000.0	-69.2882	
2000.5	-58.0087	
2001.0	-23.1632	
2001.5	-24.3717	
2002.0	-49.7505	
2002.5	-44.1108	
2003.0	-55.5917	
2003.5	-25.3788	
2004.0	17.1206	
2004.5	48.9448	
2005.0	71.5038	
2005.5	129.1096	
2006.0	161.7395	
2006.5	172.6161	
2007.0	187.1183	
2007.5	187.1183	
2008.0	247.7455	
2008.5	252.3781	
2009.0	232.2362	
2009.5	183.2914	
2010.0	154.0856	
2010.5	58.2101	
2011.0	-17.5235	
2011.5	-62.6413	
2012.0	-63.4470	
2012.5	-91.2428	
2013.0	-79.1577	
2013.5	-65.0584	
2014.0	-50.1534	
2014.5	-75.3307	
2015.0	-110.9819	
2015.5	-106.9535	
2016.0	-108.9677	
2016.5	-114.6075	
2017.0	-83.5889	
2017.5	-93.0556	
2018.0	-75.1293	
2018.5	-67.4754	
2019.0	-30.0114	
2019.5	-10.2724	
2020.0	-1.4099	
2020.5	18.1277	
2021.0	43.7079	
2021.5	39.8810	
2022.0	27.5944	
2022.5	30.6157	
2023.0	41.2909	
2023.5	88.8258	
2024.0	117.0245	
2024.5	72.3094	
2025.0	50.5562	
2025.5	43.7079	
2026.0	-16.7178	
2026.5	-33.4356	
2027.0	-24.1703	
2027.5	-10.8766	
2028.0	15.5093	
2028.5	27.9973	
2029.0	44.1108	
2029.5	38.4710	
2030.0	64.0513	
2030.5	61.0300	
2031.0	-5.0355	
2031.5	-37.2625	
2032.0	-50.1534	
2032.5	-78.3520	
2033.0	-92.4514	
2033.5	-130.3181	
2034.0	-153.6828	
2034.5	-157.3083	
2035.0	-139.5834	
2035.5	-110.5791	
2036.0	-101.9181	
2036.5	-96.4797	
2037.0	-116.6217	
2037.5	-137.7707	
2038.0	-104.3351	
2038.5	1.0071	
2039.0	80.9705	
2039.5	77.9492	
2040.0	23.3646	
2040.5	-62.2385	
2041.0	-94.2641	
2041.5	-52.9732	
2042.0	0.6043	
2042.5	51.5633	
2043.0	81.1719	
2043.5	121.4557	
2044.0	150.0572	
2044.5	131.7281	
2045.0	115.6146	
2045.5	110.5791	
2046.0	111.3848	
2046.5	96.0769	
2047.0	77.7478	
2047.5	62.6413	
2048.0	47.7363	
2048.5	30.4143	
2049.0	-13.8979	
2049.5	-35.8526	
2050.0	-59.8215	
2050.5	-64.6555	
2051.0	-48.1392	
2051.5	-57.0016	
2052.0	-85.8045	
2052.5	-113.8018	
2053.0	-79.1577	
2053.5	-33.0327	
2054.0	7.8553	
2054.5	28.8029	
2055.0	56.5988	
2055.5	78.3520	
2056.0	93.6599	
2056.5	73.1151	
2057.0	31.6228	
2057.5	-16.1135	
2058.0	-37.2625	
2058.5	-33.8384	
2059.0	-26.1845	
2059.5	3.8270	
2060.0	18.3291	
2060.5	20.1419	
2061.0	40.8881	
2061.5	-0.2014	
2062.0	-37.6654	
2062.5	-55.7931	
2063.0	-90.8400	
2063.5	-109.1691	
2064.0	-104.9393	
2064.5	-119.8444	
2065.0	-88.6244	
2065.5	-41.6937	
2066.0	-2.2156	
2066.5	49.3477	
2067.0	42.0966	
2067.5	49.5491	
2068.0	87.2145	
2068.5	92.2499	
2069.0	74.5251	
2069.5	96.6812	
2070.0	120.4486	
2070.5	187.1183	
2071.0	263.0533	
2071.5	296.6903	
2072.0	285.0080	
2072.5	198.8006	
2073.0	116.4202	
2073.5	33.2341	
2074.0	-15.5093	
2074.5	-53.3761	
2075.0	-53.7789	
2075.5	-51.1604	
2076.0	-61.8357	
2076.5	-97.8897	
2077.0	-116.4202	
2077.5	-122.0600	
2078.0	-114.4060	
2078.5	-103.1266	
2079.0	-91.0414	
2079.5	-73.7194	
2080.0	-42.4994	
2080.5	-10.0710	
2081.0	34.8455	
2081.5	46.1250	
2082.0	29.2058	
2082.5	5.2369	
2083.0	-41.6937	
2083.5	-36.6583	
2084.0	-42.7008	
2084.5	-20.7462	
2085.0	27.1916	
2085.5	44.3122	
2086.0	47.9377	
2086.5	33.6370	
2087.0	15.1064	
2087.5	-2.8199	
2088.0	-4.0284	
2088.5	-5.8412	
2089.0	-14.7036	
2089.5	-34.4427	
2090.0	-64.8569	
2090.5	-68.2811	
2091.0	-66.6697	
2091.5	-73.1151	
2092.0	-121.4557	
2092.5	-166.5736	
2093.0	-170.1991	
2093.5	-157.7111	
2094.0	-155.0927	
2094.5	-132.7352	
2095.0	-75.3307	
2095.5	-15.9121	
2096.0	15.1064	
2096.5	89.4301	
2097.0	130.3181	
2097.5	191.5495	
2098.0	233.6461	
2098.5	235.2575	
2099.0	166.9764	
2099.5	113.3989	
2100.0	75.3307	
2100.5	34.2412	
2101.0	21.9547	
2101.5	28.4001	
2102.0	23.5660	
2102.5	16.3149	
2103.0	25.7816	
2103.5	9.0639	
2104.0	0.2014	
2104.5	-11.4809	
2105.0	-14.5022	
2105.5	-1.8128	
2106.0	4.2298	
2106.5	14.0993	
2107.0	4.6326	
2107.5	-13.8979	
2108.0	-23.7675	
2108.5	-14.7036	
2109.0	-12.2866	
2109.5	-20.1419	
2110.0	-40.8881	
2110.5	-35.2483	
2111.0	-26.3859	
2111.5	-15.7107	
2112.0	-22.7604	
2112.5	-17.5235	
2113.0	-17.5235	
2113.5	-8.0568	
2114.0	-21.5518	
2114.5	-22.7604	
2115.0	-45.7221	
2115.5	-38.4710	
2116.0	-29.6086	
2116.5	2.0142	
2117.0	26.7887	
2117.5	65.0584	
2118.0	104.5365	
2118.5	68.4825	
2119.0	27.9973	
2119.5	-1.2085	
2120.0	-10.4738	
2120.5	-0.6043	
2121.0	17.1206	
2121.5	13.0922	
2122.0	4.6326	
2122.5	0.4028	
2123.0	-18.3291	
2123.5	-47.3335	
2124.0	-67.2740	
2124.5	-49.5491	
2125.0	-36.6583	
2125.5	-27.5944	
2126.0	-7.4525	
2126.5	16.3149	
2127.0	8.6610	
2127.5	10.8766	
2128.0	16.1135	
2128.5	-11.4809	
2129.0	-29.2058	
2129.5	-25.1774	
2130.0	-39.8810	
2130.5	-66.4683	
2131.0	-63.0442	
2131.5	-68.6839	
2132.0	-69.8924	
2132.5	-61.8357	
2133.0	-74.9279	
2133.5	-56.1959	
2134.0	-17.1206	
2134.5	20.1419	
2135.0	36.8597	
2135.5	50.9590	
2136.0	27.5944	
2136.5	-9.8695	
2137.0	10.2724	
2137.5	64.6555	
2138.0	126.2898	
2138.5	124.4770	
2139.0	83.7903	
2139.5	79.3591	
2140.0	83.9918	
2140.5	54.1817	
2141.0	20.9476	
2141.5	-15.1064	
2142.0	-48.9448	
2142.5	-80.9705	
2143.0	-88.2216	
2143.5	-123.8727	
2144.0	-141.1948	
2144.5	-127.2969	
2145.0	-108.9677	
2145.5	-103.1266	
2146.0	-107.9606	
2146.5	-105.9464	
2147.0	-77.5463	
2147.5	-54.1817	
2148.0	-43.3051	
2148.5	-28.6015	
2149.0	3.2227	
2149.5	12.2866	
2150.0	62.8428	
2150.5	111.9890	
2151.0	174.4289	
2151.5	163.5523	
2152.0	159.7253	
2152.5	150.4601	
2153.0	155.2941	
2153.5	167.3793	
2154.0	137.1664	
2154.5	111.7876	
2155.0	91.2428	
2155.5	79.9634	
2156.0	39.2767	
2156.5	24.3717	
2157.0	20.3433	
2157.5	-0.6043	
2158.0	-42.9023	
2158.5	-71.3024	
2159.0	-63.2456	
2159.5	-36.2554	
2160.0	-26.7887	
2160.5	-52.3690	
2161.0	-65.4612	
2161.5	-65.6626	
2162.0	-72.7123	
2162.5	-80.3662	
2163.0	-73.3165	
2163.5	-64.2527	
2164.0	-27.9973	
2164.5	10.8766	
2165.0	41.2909	
2165.5	72.1080	
2166.0	73.9208	
2166.5	56.5988	
2167.0	36.4569	
2167.5	27.9973	
2168.0	13.4951	
2168.5	15.7107	
2169.0	-2.0142	
2169.5	7.6539	
2170.0	34.8455	
2170.5	39.4781	
2171.0	25.1774	
2171.5	-2.4170	
2172.0	-18.1277	
2172.5	-24.7745	
2173.0	-1.4099	
2173.5	-7.0497	
2174.0	-14.7036	
2174.5	-4.2298	
2175.0	-24.7745	
2175.5	-45.5207	
2176.0	-57.0016	
2176.5	-26.9902	
2177.0	-19.9405	
2177.5	-15.7107	
2178.0	0.2014	
2178.5	12.2866	
2179.0	11.6823	
2179.5	16.5164	
2180.0	7.4525	
2180.5	5.4383	
2181.0	-11.2795	
2181.5	-44.9165	
2182.0	-56.5988	
2182.5	-114.4060	
2183.0	-140.3891	
2183.5	-144.0146	
2184.0	-129.3111	
2184.5	-106.5507	
2185.0	-91.4443	
2185.5	-90.6386	
2186.0	-83.5889	
2186.5	-42.7008	
2187.0	-19.5377	
2187.5	27.9973	
2188.0	75.5322	
2188.5	120.6500	
2189.0	111.7876	
2189.5	90.0343	
2190.0	101.1124	
2190.5	65.6626	
2191.0	55.9945	
2191.5	44.1108	
2192.0	32.8313	
2192.5	11.2795	
2193.0	-19.9405	
2193.5	-8.6610	
2194.0	-15.5093	
2194.5	-49.3477	
2195.0	-85.2003	
2195.5	-100.9110	
2196.0	-105.1408	
2196.5	-78.3520	
2197.0	-43.3051	
2197.5	1.4099	
2198.0	16.5164	
2198.5	43.3051	
2199.0	47.7363	
2199.5	37.2625	
2200.0	38.4710	
2200.5	26.3859	
2201.0	23.9689	
2201.5	36.0540	
2202.0	39.0753	
2202.5	75.1293	
2203.0	68.2811	
2203.5	65.8640	
2204.0	56.5988	
2204.5	56.5988	
2205.0	45.3193	
2205.5	28.1987	
2206.0	-10.2724	
2206.5	-13.2937	
2207.0	-27.9973	
2207.5	-28.8029	
2208.0	-29.6086	
2208.5	-20.7462	
2209.0	17.3220	
2209.5	32.8313	
2210.0	41.6937	
2210.5	48.1392	
2211.0	22.7604	
2211.5	2.8199	
2212.0	-27.5944	
2212.5	-54.7860	
2213.0	-36.0540	
2213.5	-47.5349	
2214.0	-52.5704	
2214.5	-28.4001	
2215.0	-4.4312	
2215.5	2.8199	
2216.0	-5.0355	
2216.5	-6.2440	
2217.0	12.0851	
2217.5	1.0071	
2218.0	-15.5093	
2218.5	-33.4356	
2219.0	-70.6981	
2219.5	-114.6075	
2220.0	-127.9011	
2220.5	-155.8984	
2221.0	-176.8460	
2221.5	-179.2630	
2222.0	-174.6303	
2222.5	-153.0785	
2223.0	-128.5054	
2223.5	-103.7308	
2224.0	-95.2712	
2224.5	-103.1266	
2225.0	-119.8444	
2225.5	-102.1195	
2226.0	-75.9350	
2226.5	-32.2271	
2227.0	23.7675	
2227.5	90.8400	
2228.0	153.8842	
2228.5	174.0261	
2229.0	201.0163	
2229.5	209.6773	
2230.0	187.7226	
2230.5	147.6402	
2231.0	132.1309	
2231.5	145.4246	
2232.0	158.9197	
2232.5	156.7040	
2233.0	165.9693	
2233.5	165.9693	
2234.0	165.9693	
2234.5	165.9693	
2235.0	165.9693	
2235.5	165.9693	
2236.0	165.9693	
2236.5	165.9693	
2237.0	165.9693	
2237.5	165.9693	
2238.0	165.9693	
2238.5	165.9693	
2239.0	165.9693	
2239.5	165.9693	
2240.0	165.9693	
2240.5	-39.4781	
2241.0	-35.0469	
2241.5	-32.8313	
2242.0	-27.1916	
2242.5	3.0213	
2243.0	13.4951	
2243.5	25.7816	
2244.0	29.2058	
2244.5	23.5660	
2245.0	14.9050	
2245.5	-6.2440	
2246.0	-21.5518	
2246.5	-22.1561	
2247.0	-8.2582	
2247.5	1.0071	
2248.0	7.2511	
2248.5	32.6299	
2249.0	8.4596	
2249.5	17.5235	
2250.0	11.6823	
2250.5	-1.4099	
2251.0	-5.0355	
2251.5	-6.4454	
2252.0	-32.0256	
2252.5	-57.0016	
2253.0	-57.8073	
2253.5	-72.1080	
2254.0	-66.2669	
2254.5	-49.3477	
2255.0	-43.3051	
2255.5	-46.7292	
2256.0	-23.1632	
2256.5	-24.7745	
2257.0	-12.6894	
2257.5	-7.4525	
2258.0	-0.4028	
2258.5	-10.0710	
2259.0	-8.4596	
2259.5	-24.7745	
2260.0	-11.6823	
2260.5	-27.5944	
2261.0	-32.8313	
2261.5	-25.9831	
2262.0	-32.8313	
2262.5	-25.5802	
2263.0	-16.5164	
2263.5	-21.1490	
2264.0	-21.3504	
2264.5	-22.7604	
2265.0	-15.1064	
2265.5	-24.7745	
2266.0	-17.5235	
2266.5	-21.1490	
2267.0	-5.6397	
2267.5	29.0043	
2268.0	9.4667	
2268.5	19.3362	
2269.0	30.8171	
2269.5	29.8100	
2270.0	20.9476	
2270.5	19.3362	
2271.0	17.9263	
2271.5	-1.6114	
2272.0	29.2058	
2272.5	-0.2014	
2273.0	-13.4951	
2273.5	-1.4099	
2274.0	-11.4809	
2274.5	-6.2440	
2275.0	-3.2227	
2275.5	2.0142	
2276.0	-2.6184	
2276.5	-16.3149	
2277.0	-9.4667	
2277.5	-17.5235	
2278.0	-14.3008	
2278.5	3.2227	
2279.0	8.0568	
2279.5	-3.8270	
2280.0	-4.2298	
2280.5	-1.8128	
2281.0	-16.7178	
2281.5	-19.1348	
2282.0	-14.7036	
2282.5	-22.1561	
2283.0	-22.9618	
2283.5	-3.8270	
2284.0	-1.8128	
2284.5	-7.4525	
2285.0	-2.8199	
2285.5	-5.8412	
2286.0	-5.0355	
2286.5	-9.6681	
2287.0	10.6752	
2287.5	1.4099	
2288.0	-10.4738	
2288.5	-3.4241	
2289.0	5.0355	
2289.5	-5.0355	
2290.0	6.0426	
2290.5	-1.2085	
2291.0	-19.1348	
2291.5	-13.0922	
2292.0	-26.7887	
2292.5	-21.7533	
2293.0	-25.3788	
2293.5	-17.1206	
2294.0	-13.8979	
2294.5	-10.2724	
2295.0	-4.4312	
2295.5	13.4951	
2296.0	-8.0568	
2296.5	3.4241	
2297.0	-8.0568	
2297.5	-11.4809	
2298.0	-9.6681	
2298.5	-7.8553	
2299.0	-12.8908	
2299.5	-1.6114	
2300.0	4.4312	
2300.5	1.4099	
2301.0	2.2156	
2301.5	8.6610	
2302.0	-3.0213	
2302.5	23.3646	
2303.0	-20.3433	
2303.5	11.0780	
2304.0	15.3078	
2304.5	5.6397	
2305.0	9.0639	
2305.5	19.5377	
2306.0	27.1916	
2306.5	32.0256	
2307.0	17.5235	
2307.5	11.6823	
2308.0	8.2582	
2308.5	-4.4312	
2309.0	-12.2866	
2309.5	-18.5306	
2310.0	-27.9973	
2310.5	-20.3433	
2311.0	-23.9689	
2311.5	-21.7533	
2312.0	-25.3788	
2312.5	-11.0780	
2313.0	-14.9050	
2313.5	-15.7107	
2314.0	-1.4099	
2314.5	13.0922	
2315.0	14.7036	
2315.5	5.8412	
2316.0	19.9405	
2316.5	27.5944	
2317.0	30.4143	
2317.5	27.5944	
2318.0	32.8313	
2318.5	23.7675	
2319.0	1.0071	
2319.5	0.0000	
2320.0	-19.3362	
2320.5	-29.6086	
2321.0	-37.2625	
2321.5	-17.9263	
2322.0	-8.4596	
2322.5	-6.2440	
2323.0	7.4525	
2323.5	3.4241	
2324.0	-3.8270	
2324.5	-8.6610	
2325.0	-20.5447	
2325.5	-24.7745	
2326.0	-25.9831	
2326.5	-20.5447	
2327.0	-31.2200	
2327.5	-30.8171	
2328.0	-13.0922	
2328.5	-10.0710	
2329.0	-3.8270	
2329.5	-4.6326	
2330.0	-13.4951	
2330.5	-7.2511	
2331.0	-7.4525	
2331.5	-18.9334	
2332.0	-26.1845	
2332.5	-18.1277	
2333.0	-13.8979	
2333.5	-1.6114	
2334.0	-15.3078	
2334.5	-12.0851	
2335.0	-6.6468	
2335.5	18.3291	
2336.0	16.7178	
2336.5	7.8553	
2337.0	9.2653	
2337.5	0.4028	
2338.0	15.1064	
2338.5	-11.2795	
2339.0	1.0071	
2339.5	10.4738	
2340.0	15.3078	
2340.5	25.5802	
2341.0	6.6468	
2341.5	5.4383	
2342.0	4.2298	
2342.5	-10.2724	
2343.0	0.6043	
2343.5	-0.6043	
2344.0	-7.8553	
2344.5	-16.5164	
2345.0	2.2156	
2345.5	15.3078	
2346.0	-0.2014	
2346.5	-9.8695	
2347.0	4.8341	
2347.5	4.2298	
2348.0	-2.2156	
2348.5	7.4525	
2349.0	-3.0213	
2349.5	0.2014	
2350.0	-2.6184	
2350.5	-14.7036	
2351.0	-14.7036	
2351.5	-15.7107	
2352.0	-6.2440	
2352.5	-5.4383	
2353.0	-4.6326	
2353.5	-11.8837	
2354.0	-17.9263	
2354.5	-6.0426	
2355.0	-5.4383	
2355.5	-8.4596	
2356.0	-5.0355	
2356.5	-8.2582	
2357.0	-2.0142	
2357.5	-14.7036	
2358.0	0.4028	
2358.5	-5.8412	
2359.0	-9.2653	
2359.5	-13.6965	
2360.0	-13.2937	
2360.5	1.4099	
2361.0	6.2440	
2361.5	10.6752	
2362.0	-14.7036	
2362.5	-26.9902	
2363.0	-17.5235	
2363.5	-23.9689	
2364.0	-27.1916	
2364.5	-23.3646	
2365.0	-28.1987	
2365.5	-21.1490	
2366.0	-39.8810	
2366.5	-29.2058	
2367.0	-14.9050	
2367.5	-25.3788	
2368.0	-8.4596	
2368.5	-5.6397	
2369.0	-0.6043	
2369.5	1.0071	
2370.0	-0.2014	
2370.5	6.4454	
2371.0	4.4312	
2371.5	10.6752	
2372.0	-7.6539	
2372.5	7.8553	
2373.0	7.6539	
2373.5	5.8412	
2374.0	13.8979	
2374.5	-7.4525	
2375.0	5.6397	
2375.5	9.8695	
2376.0	9.8695	
2376.5	12.2866	
2377.0	-3.8270	
2377.5	6.6468	
2378.0	21.7533	
2378.5	7.2511	
2379.0	5.4383	
2379.5	-4.4312	
2380.0	16.3149	
2380.5	3.2227	
2381.0	-2.6184	
2381.5	-12.6894	
2382.0	-10.6752	
2382.5	3.8270	
2383.0	12.8908	
2383.5	22.3575	
2384.0	15.9121	
2384.5	2.6184	
2385.0	-10.6752	
2385.5	4.0284	
2386.0	2.6184	
2386.5	-4.0284	
2387.0	1.6114	
2387.5	-3.2227	
2388.0	-7.0497	
2388.5	-0.2014	
2389.0	-16.1135	
2389.5	-19.1348	
2390.0	-21.3504	
2390.5	-12.2866	
2391.0	-7.6539	
2391.5	-28.8029	
2392.0	-34.0398	
2392.5	-20.1419	
2393.0	-8.6610	
2393.5	-4.0284	
2394.0	7.8553	
2394.5	-1.4099	
2395.0	1.4099	
2395.5	-3.2227	
2396.0	-18.5306	
2396.5	1.0071	
2397.0	25.1774	
2397.5	7.8553	
2398.0	17.9263	
2398.5	19.5377	
2399.0	-1.4099	
2399.5	1.8128	
2400.0	13.0922	
2400.5	3.4241	
2401.0	-3.4241	
2401.5	-1.8128	
2402.0	-15.7107	
2402.5	-11.4809	
2403.0	-21.5518	
2403.5	-19.1348	
2404.0	-15.9121	
2404.5	-21.1490	
2405.0	-31.4214	
2405.5	-21.5518	
2406.0	-5.0355	
2406.5	1.6114	
2407.0	-5.0355	
2407.5	-2.8199	
2408.0	-0.6043	
2408.5	-2.6184	
2409.0	-15.7107	
2409.5	-15.1064	
2410.0	-16.7178	
2410.5	3.4241	
2411.0	-3.0213	
2411.5	6.6468	
2412.0	38.8739	
2412.5	37.8668	
2413.0	19.7391	
2413.5	18.9334	
2414.0	20.5447	
2414.5	18.1277	
2415.0	9.4667	
2415.5	0.8057	
2416.0	-20.5447	
2416.5	-27.9973	
2417.0	-19.1348	
2417.5	-3.8270	
2418.0	1.4099	
2418.5	4.8341	
2419.0	9.0639	
2419.5	10.0710	
2420.0	11.6823	
2420.5	12.0851	
2421.0	6.6468	
2421.5	-9.0639	
2422.0	-6.2440	
2422.5	-8.6610	
2423.0	-16.9192	
2423.5	-27.1916	
2424.0	-25.7816	
2424.5	-8.2582	
2425.0	-16.7178	
2425.5	-16.3149	
2426.0	-19.9405	
2426.5	-16.7178	
2427.0	-16.7178	
2427.5	-35.0469	
2428.0	-4.6326	
2428.5	-1.0071	
2429.0	-1.2085	
2429.5	7.0497	
2430.0	-5.4383	
2430.5	-7.0497	
2431.0	-11.2795	
2431.5	3.8270	
2432.0	-5.4383	
2432.5	-10.0710	
2433.0	-4.8341	
2433.5	4.6326	
2434.0	7.4525	
2434.5	-1.4099	
2435.0	2.4170	
2435.5	-4.4312	
2436.0	-12.2866	
2436.5	-5.0355	
2437.0	-7.2511	
2437.5	-12.6894	
2438.0	-2.2156	
2438.5	3.6255	
2439.0	7.8553	
2439.5	21.3504	
2440.0	20.5447	
2440.5	11.2795	
2441.0	-0.4028	
2441.5	9.0639	
2442.0	-19.9405	
2442.5	-35.8526	
2443.0	-18.5306	
2443.5	-28.1987	
2444.0	-28.1987	
2444.5	-21.1490	
2445.0	-8.2582	
2445.5	1.0071	
2446.0	7.8553	
2446.5	-7.4525	
2447.0	9.8695	
2447.5	14.9050	
2448.0	12.4880	
2448.5	5.6397	
2449.0	17.5235	
2449.5	22.1561	
2450.0	13.8979	
2450.5	5.4383	
2451.0	7.6539	
2451.5	1.8128	
2452.0	8.0568	
2452.5	5.6397	
2453.0	-5.4383	
2453.5	-1.8128	
2454.0	4.6326	
2454.5	2.8199	
2455.0	-4.6326	
2455.5	1.4099	
2456.0	1.6114	
2456.5	10.2724	
2457.0	17.5235	
2457.5	0.6043	
2458.0	-0.8057	
2458.5	-23.9689	
2459.0	-5.6397	
2459.5	-3.8270	
2460.0	-10.2724	
2460.5	-19.9405	
2461.0	-6.8482	
2461.5	-21.5518	
2462.0	-21.3504	
2462.5	-9.6681	
2463.0	-15.7107	
2463.5	-16.7178	
2464.0	-15.1064	
2464.5	-14.3008	
2465.0	-17.1206	
2465.5	-13.8979	
2466.0	-9.4667	
2466.5	-8.4596	
2467.0	-22.1561	
2467.5	-22.1561	
2468.0	4.6326	
2468.5	3.2227	
2469.0	13.6965	
2469.5	-1.4099	
2470.0	-4.6326	
2470.5	-1.0071	
2471.0	19.5377	
2471.5	-2.6184	
2472.0	-9.0639	
2472.5	6.4454	
2473.0	5.0355	
2473.5	16.3149	
2474.0	10.6752	
2474.5	17.1206	
2475.0	4.8341	
2475.5	5.8412	
2476.0	6.8482	
2476.5	8.6610	
2477.0	-4.4312	
2477.5	6.4454	
2478.0	3.6255	
2478.5	-3.4241	
2479.0	-1.4099	
2479.5	6.4454	
2480.0	5.8412	
2480.5	-2.6184	
2481.0	4.6326	
2481.5	-4.0284	
2482.0	11.6823	
2482.5	-14.0993	
2483.0	-7.0497	
2483.5	-5.2369	
2484.0	-3.0213	
2484.5	1.2085	
2485.0	8.2582	
2485.5	2.2156	
2486.0	-18.7320	
2486.5	-33.8384	
2487.0	-13.2937	
2487.5	-20.3433	
2488.0	-5.0355	
2488.5	-19.9405	
2489.0	-25.9831	
2489.5	-9.6681	
2490.0	-3.2227	
2490.5	3.8270	
2491.0	3.6255	
2491.5	-10.4738	
2492.0	2.2156	
2492.5	5.8412	
2493.0	7.4525	
2493.5	11.2795	
2494.0	3.8270	
2494.5	1.0071	
2495.0	5.8412	
2495.5	0.8057	
2496.0	9.8695	
2496.5	-8.2582	
2497.0	-10.6752	
2497.5	0.2014	
2498.0	6.8482	
2498.5	-2.2156	
2499.0	12.2866	
2499.5	5.0355	
2500.0	15.3078	
2500.5	2.8199	
2501.0	13.6965	
2501.5	10.8766	
2502.0	27.9973	
2502.5	40.8881	
2503.0	13.4951	
2503.5	7.2511	
2504.0	-1.0071	
2504.5	-1.4099	
2505.0	10.6752	
2505.5	10.6752	
2506.0	11.0780	
2506.5	7.2511	
2507.0	2.2156	
2507.5	11.0780	
2508.0	1.6114	
2508.5	9.2653	
2509.0	15.3078	
2509.5	15.9121	
2510.0	4.2298	
2510.5	-3.8270	
2511.0	-1.6114	
2511.5	9.4667	
2512.0	-11.8837	
2512.5	0.2014	
2513.0	17.1206	
2513.5	-1.2085	
2514.0	14.3008	
2514.5	5.4383	
2515.0	-7.2511	
2515.5	-22.1561	
2516.0	-26.3859	
2516.5	-21.9547	
2517.0	-17.1206	
2517.5	-4.6326	
2518.0	-10.8766	
2518.5	-24.3717	
2519.0	-22.3575	
2519.5	-9.8695	
2520.0	-4.4312	
2520.5	6.4454	
2521.0	11.0780	
2521.5	13.8979	
2522.0	16.5164	
2522.5	24.7745	
2523.0	11.8837	
2523.5	23.9689	
2524.0	4.6326	
2524.5	13.6965	
2525.0	12.4880	
2525.5	18.3291	
2526.0	-4.4312	
2526.5	-8.2582	
2527.0	-18.7320	
2527.5	-21.3504	
2528.0	-13.8979	
2528.5	6.8482	
2529.0	-1.4099	
2529.5	-3.0213	
2530.0	0.4028	
2530.5	-3.6255	
2531.0	-2.6184	
2531.5	11.2795	
2532.0	31.6228	
2532.5	6.4454	
2533.0	13.8979	
2533.5	8.2582	
2534.0	9.8695	
2534.5	13.2937	
2535.0	32.4285	
2535.5	11.0780	
2536.0	10.8766	
2536.5	-2.2156	
2537.0	11.0780	
2537.5	7.6539	
2538.0	-0.6043	
2538.5	8.6610	
2539.0	26.3859	
2539.5	2.2156	
2540.0	-3.2227	
2540.5	3.4241	
2541.0	-3.0213	
2541.5	4.2298	
2542.0	2.8199	
2542.5	-6.0426	
2543.0	-20.3433	
2543.5	-6.6468	
2544.0	0.4028	
2544.5	-11.2795	
2545.0	2.8199	
2545.5	-5.0355	
2546.0	4.4312	
2546.5	2.0142	
2547.0	6.8482	
2547.5	5.8412	
2548.0	-12.0851	
2548.5	-9.0639	
2549.0	-2.2156	
2549.5	-14.3008	
2550.0	-7.4525	
2550.5	-6.0426	
2551.0	2.2156	
2551.5	6.4454	
2552.0	7.6539	
2552.5	-3.0213	
2553.0	-2.2156	
2553.5	-5.4383	
2554.0	6.8482	
2554.5	3.8270	
2555.0	-2.4170	
2555.5	-2.6184	
2556.0	-3.8270	
2556.5	-9.4667	
2557.0	1.2085	
2557.5	-14.9050	
2558.0	-13.4951	
2558.5	-4.6326	
2559.0	-4.2298	
2559.5	-3.8270	
2560.0	-14.0993	
2560.5	-7.2511	
2561.0	-4.0284	
2561.5	5.4383	
2562.0	4.6326	
2562.5	12.8908	
2563.0	9.2653	
2563.5	30.4143	
2564.0	28.4001	
2564.5	17.3220	
2565.0	19.1348	
2565.5	8.6610	
2566.0	4.8341	
2566.5	11.0780	
2567.0	-2.0142	
2567.5	4.2298	
2568.0	-8.2582	
2568.5	-6.2440	
2569.0	-11.4809	
2569.5	-24.9760	
2570.0	-32.0256	
2570.5	-14.3008	
2571.0	-6.6468	
2571.5	-3.4241	
2572.0	1.8128	
2572.5	9.8695	
2573.0	24.5731	
2573.5	18.7320	
2574.0	5.2369	
2574.5	6.8482	
2575.0	9.6681	
2575.5	7.4525	
2576.0	-17.9263	
2576.5	7.0497	
2577.0	14.9050	
2577.5	15.5093	
2578.0	4.4312	
2578.5	-8.8624	
2579.0	3.6255	
2579.5	-14.9050	
2580.0	-14.7036	
2580.5	-22.9618	
2581.0	-27.5944	
2581.5	-25.1774	
2582.0	-20.1419	
2582.5	-25.9831	
2583.0	-21.5518	
2583.5	-8.6610	
2584.0	-7.0497	
2584.5	-11.4809	
2585.0	-7.0497	
2585.5	-0.6043	
2586.0	2.2156	
2586.5	4.2298	
2587.0	6.6468	
2587.5	-13.6965	
2588.0	-11.8837	
2588.5	-20.9476	
2589.0	-17.5235	
2589.5	-19.7391	
2590.0	-12.6894	
2590.5	-7.2511	
2591.0	-8.4596	
2591.5	-4.8341	
2592.0	-5.6397	
2592.5	-1.8128	
2593.0	-2.4170	
2593.5	-22.9618	
2594.0	-13.4951	
2594.5	-4.6326	
2595.0	-15.1064	
2595.5	-23.3646	
2596.0	-30.6157	
2596.5	-21.5518	
2597.0	-11.0780	
2597.5	-19.9405	
2598.0	-20.3433	
2598.5	-15.1064	
2599.0	2.6184	
2599.5	-0.6043	
2600.0	8.4596	
2600.5	4.4312	
2601.0	9.2653	
2601.5	31.2200	
2602.0	22.1561	
2602.5	28.4001	
2603.0	14.7036	
2603.5	-3.6255	
2604.0	3.8270	
2604.5	2.8199	
2605.0	-9.0639	
2605.5	-14.3008	
2606.0	-12.2866	
2606.5	-15.7107	
2607.0	-5.8412	
2607.5	-14.9050	
2608.0	-3.8270	
2608.5	15.9121	
2609.0	5.8412	
2609.5	15.3078	
2610.0	6.2440	
2610.5	7.6539	
2611.0	3.6255	
2611.5	10.0710	
2612.0	7.2511	
2612.5	1.4099	
2613.0	-2.2156	
2613.5	3.4241	
2614.0	1.2085	
2614.5	-12.8908	
2615.0	-12.6894	
2615.5	-23.1632	
2616.0	-14.3008	
2616.5	-5.0355	
2617.0	5.2369	
2617.5	-8.6610	
2618.0	2.8199	
2618.5	8.0568	
2619.0	14.3008	
2619.5	-11.6823	
2620.0	-15.1064	
2620.5	-16.3149	
2621.0	-20.9476	
2621.5	-5.0355	
2622.0	-13.8979	
2622.5	-20.3433	
2623.0	-21.9547	
2623.5	-26.7887	
2624.0	-25.3788	
2624.5	-16.9192	
2625.0	-26.3859	
2625.5	-23.1632	
2626.0	-22.1561	
2626.5	-17.7249	
2627.0	-7.6539	
2627.5	-0.2014	
2628.0	-3.2227	
2628.5	-4.8341	
2629.0	-5.8412	
2629.5	4.2298	
2630.0	15.3078	
2630.5	30.8171	
2631.0	34.4427	
2631.5	56.5988	
2632.0	33.6370	
2632.5	25.1774	
2633.0	12.8908	
2633.5	19.5377	
2634.0	9.8695	
2634.5	-1.8128	
2635.0	8.6610	
2635.5	5.0355	
2636.0	-5.0355	
2636.5	-1.6114	
2637.0	-3.0213	
2637.5	2.6184	
2638.0	13.4951	
2638.5	-4.8341	
2639.0	-8.2582	
2639.5	-0.2014	
2640.0	2.0142	
2640.5	13.4951	
2641.0	-1.8128	
2641.5	2.6184	
2642.0	-1.6114	
2642.5	-3.0213	
2643.0	1.4099	
2643.5	-5.4383	
2644.0	-4.6326	
2644.5	-1.8128	
2645.0	-11.0780	
2645.5	1.4099	
2646.0	-22.7604	
2646.5	-2.6184	
2647.0	-4.0284	
2647.5	-7.0497	
2648.0	5.8412	
2648.5	-1.8128	
2649.0	23.3646	
2649.5	1.4099	
2650.0	-5.0355	
2650.5	0.8057	
2651.0	7.2511	
2651.5	-2.2156	
2652.0	0.2014	
2652.5	-9.2653	
2653.0	10.2724	
2653.5	7.8553	
2654.0	-1.4099	
2654.5	5.4383	
2655.0	3.6255	
2655.5	-6.2440	
2656.0	-5.8412	
2656.5	-15.3078	
2657.0	2.2156	
2657.5	1.8128	
2658.0	6.8482	
2658.5	-5.8412	
2659.0	7.4525	
2659.5	11.4809	
2660.0	18.1277	
2660.5	15.5093	
2661.0	6.0426	
2661.5	10.2724	
2662.0	1.0071	
2662.5	15.1064	
2663.0	5.0355	
2663.5	4.6326	
2664.0	-9.0639	
2664.5	-32.8313	
2665.0	-8.4596	
2665.5	3.8270	
2666.0	0.0000	
2666.5	-4.2298	
2667.0	-2.4170	
2667.5	-7.8553	
2668.0	4.6326	
2668.5	10.4738	
2669.0	-1.0071	
2669.5	5.8412	
2670.0	7.8553	
2670.5	9.2653	
2671.0	-4.2298	
2671.5	-4.0284	
2672.0	-5.0355	
2672.5	-7.4525	
2673.0	-0.6043	
2673.5	-13.2937	
2674.0	-0.6043	
2674.5	7.8553	
2675.0	-15.3078	
2675.5	-32.2271	
2676.0	-35.8526	
2676.5	-29.2058	
2677.0	-33.6370	
2677.5	-27.9973	
2678.0	-21.5518	
2678.5	-23.9689	
2679.0	-10.8766	
2679.5	-13.8979	
2680.0	-5.8412	
2680.5	-7.0497	
2681.0	7.8553	
2681.5	13.6965	
2682.0	-2.6184	
2682.5	14.3008	
2683.0	37.4640	
2683.5	39.0753	
2684.0	63.2456	
2684.5	66.0655	
2685.0	59.6200	
2685.5	49.1463	
2686.0	24.9760	
2686.5	24.7745	
2687.0	19.5377	
2687.5	17.7249	
2688.0	11.4809	
2688.5	1.2085	
2689.0	-1.4099	
2689.5	-5.0355	
2690.0	2.4170	
2690.5	-4.2298	
2691.0	-23.1632	
2691.5	-23.1632	
2692.0	-17.9263	
2692.5	-26.3859	
2693.0	-21.9547	
2693.5	-18.7320	
2694.0	-21.3504	
2694.5	-27.5944	
2695.0	-22.5589	
2695.5	-28.1987	
2696.0	-28.1987	
2696.5	-26.7887	
2697.0	-19.7391	
2697.5	-14.7036	
2698.0	-9.4667	
2698.5	-8.2582	
2699.0	-1.2085	
2699.5	1.8128	
2700.0	2.8199	
2700.5	8.0568	
2701.0	-1.8128	
2701.5	-2.8199	
2702.0	-5.4383	
2702.5	-3.6255	
2703.0	-10.4738	
2703.5	-7.4525	
2704.0	-3.6255	
2704.5	3.8270	
2705.0	17.9263	
2705.5	16.7178	
2706.0	24.1703	
2706.5	23.1632	
2707.0	23.1632	
2707.5	25.1774	
2708.0	15.1064	
2708.5	30.6157	
2709.0	5.8412	
2709.5	1.8128	
2710.0	-7.8553	
2710.5	-8.0568	
2711.0	-23.9689	
2711.5	-10.2724	
2712.0	-25.9831	
2712.5	-26.9902	
2713.0	-26.1845	
2713.5	-14.7036	
2714.0	-2.8199	
2714.5	-15.5093	
2715.0	-23.3646	
2715.5	-39.0753	
2716.0	-34.8455	
2716.5	-26.7887	
2717.0	-18.5306	
2717.5	-10.8766	
2718.0	-21.3504	
2718.5	-21.9547	
2719.0	-15.3078	
2719.5	4.6326	
2720.0	15.7107	
2720.5	15.9121	
2721.0	7.8553	
2721.5	9.2653	
2722.0	1.4099	
2722.5	1.0071	
2723.0	1.4099	
2723.5	5.0355	
2724.0	14.0993	
2724.5	20.5447	
2725.0	37.6654	
2725.5	27.1916	
2726.0	25.9831	
2726.5	25.7816	
2727.0	18.7320	
2727.5	12.2866	
2728.0	7.8553	
2728.5	21.9547	
2729.0	-15.1064	
2729.5	-16.3149	
2730.0	-12.4880	
2730.5	-20.9476	
2731.0	-17.1206	
2731.5	-11.0780	
2732.0	0.6043	
2732.5	6.2440	
2733.0	10.2724	
2733.5	4.6326	
2734.0	8.2582	
2734.5	1.4099	
2735.0	10.2724	
2735.5	-10.6752	
2736.0	-5.4383	
2736.5	-2.8199	
2737.0	-8.6610	
2737.5	-12.6894	
2738.0	-2.4170	
2738.5	6.8482	
2739.0	-7.0497	
2739.5	0.4028	
2740.0	9.8695	
2740.5	5.4383	
2741.0	-6.8482	
2741.5	2.2156	
2742.0	-12.2866	
2742.5	-11.0780	
2743.0	-23.5660	
2743.5	-17.9263	
2744.0	-1.2085	
2744.5	-0.2014	
2745.0	9.2653	
2745.5	-5.2369	
2746.0	-9.4667	
2746.5	-10.6752	
2747.0	-4.4312	
2747.5	2.8199	
2748.0	-2.6184	
2748.5	8.4596	
2749.0	-2.4170	
2749.5	-3.0213	
2750.0	-0.2014	
2750.5	-21.9547	
2751.0	-24.3717	
2751.5	-34.8455	
2752.0	-31.2200	
2752.5	-24.3717	
2753.0	-14.5022	
2753.5	-6.6468	
2754.0	-26.9902	
2754.5	-12.0851	
2755.0	-21.1490	
2755.5	-18.7320	
2756.0	0.6043	
2756.5	-5.0355	
2757.0	10.6752	
2757.5	-1.8128	
2758.0	20.7462	
2758.5	20.9476	
2759.0	17.9263	
2759.5	19.9405	
2760.0	16.5164	
2760.5	-1.6114	
2761.0	-4.6326	
2761.5	-8.2582	
2762.0	-12.0851	
2762.5	-12.2866	
2763.0	-3.0213	
2763.5	-3.2227	
2764.0	-0.4028	
2764.5	1.2085	
2765.0	-7.6539	
2765.5	-10.2724	
2766.0	-17.5235	
2766.5	3.4241	
2767.0	5.2369	
2767.5	-8.2582	
2768.0	-5.0355	
2768.5	-7.0497	
2769.0	-2.2156	
2769.5	-12.6894	
2770.0	-10.8766	
2770.5	-15.1064	
2771.0	-9.0639	
2771.5	-8.6610	
2772.0	-17.3220	
2772.5	-6.2440	
2773.0	-1.2085	
2773.5	-3.0213	
2774.0	-7.4525	
2774.5	-6.4454	
2775.0	-2.2156	
2775.5	9.2653	
2776.0	1.8128	
2776.5	-1.8128	
2777.0	-9.4667	
2777.5	-7.4525	
2778.0	-5.0355	
2778.5	-28.8029	
2779.0	-24.3717	
2779.5	-4.4312	
2780.0	17.5235	
2780.5	15.7107	
2781.0	23.9689	
2781.5	8.4596	
2782.0	2.2156	
2782.5	18.9334	
2783.0	4.6326	
2783.5	9.4667	
2784.0	15.1064	
2784.5	-7.0497	
2785.0	-2.8199	
2785.5	-11.6823	
2786.0	-2.8199	
2786.5	-3.0213	
2787.0	10.2724	
2787.5	8.2582	
2788.0	15.9121	
2788.5	14.3008	
2789.0	8.0568	
2789.5	21.9547	
2790.0	4.0284	
2790.5	1.8128	
2791.0	7.4525	
2791.5	-2.6184	
2792.0	17.9263	
2792.5	11.8837	
2793.0	18.5306	
2793.5	1.2085	
2794.0	3.2227	
2794.5	-8.6610	
2795.0	-8.6610	
2795.5	-11.4809	
2796.0	-5.4383	
2796.5	-13.2937	
2797.0	-3.0213	
2797.5	-0.6043	
2798.0	-11.4809	
2798.5	-8.2582	
2799.0	4.4312	
2799.5	-1.0071	
2800.0	-6.6468	
2800.5	7.8553	
2801.0	18.9334	
2801.5	10.0710	
2802.0	19.9405	
2802.5	16.3149	
2803.0	10.6752	
2803.5	-4.6326	
2804.0	-18.3291	
2804.5	-23.1632	
2805.0	-35.0469	
2805.5	-6.0426	
2806.0	23.5660	
2806.5	62.2385	
2807.0	67.4754	
2807.5	75.9350	
2808.0	79.1577	
2808.5	61.4328	
2809.0	41.6937	
2809.5	34.6441	
2810.0	25.1774	
2810.5	-3.8270	
2811.0	-17.7249	
2811.5	-11.6823	
2812.0	14.7036	
2812.5	11.8837	
2813.0	11.0780	
2813.5	16.9192	
2814.0	4.0284	
2814.5	-12.6894	
2815.0	-25.9831	
2815.5	5.8412	
2816.0	51.7647	
2816.5	69.8924	
2817.0	69.6910	
2817.5	59.0158	
2818.0	47.5349	
2818.5	46.9306	
2819.0	43.3051	
2819.5	63.2456	
2820.0	82.3804	
2820.5	108.1620	
2821.0	136.7636	
2821.5	134.3465	
2822.0	119.8444	
2822.5	100.1053	
2823.0	114.6075	
2823.5	156.7040	
2824.0	168.9906	
2824.5	157.9126	
2825.0	146.8345	
2825.5	120.0458	
2826.0	65.0584	
2826.5	4.6326	
2827.0	-21.7533	
2827.5	-52.5704	
2828.0	-85.6031	
2828.5	-142.4033	
2829.0	-213.7056	
2829.5	-208.2673	
2830.0	-187.5212	
2830.5	-157.9126	
2831.0	-208.2673	
2831.5	-269.2973	
2832.0	-340.1968	
2832.5	-354.6990	
2833.0	-280.7782	
2833.5	-182.6871	
2834.0	-70.2953	
2834.5	23.5660	
2835.0	83.7903	
2835.5	137.1664	
2836.0	156.3012	
2836.5	153.8842	
2837.0	125.8869	
2837.5	44.5136	
2838.0	-9.4667	
2838.5	-18.3291	
2839.0	-3.6255	
2839.5	42.9023	
2840.0	88.4230	
2840.5	74.3236	
2841.0	7.2511	
2841.5	-43.3051	
2842.0	-71.3024	
2842.5	1.8128	
2843.0	109.1691	
2843.5	113.8018	
2844.0	48.5420	
2844.5	-13.4951	
2845.0	-66.6697	
2845.5	-84.5960	
2846.0	-33.6370	
2846.5	25.9831	
2847.0	97.6883	
2847.5	124.2756	
2848.0	131.1238	
2848.5	151.4671	
2849.0	137.5692	
2849.5	89.0272	
2850.0	106.1479	
2850.5	140.3891	
2851.0	215.3170	
2851.5	140.5905	
2852.0	41.2909	
2852.5	-35.8526	
2853.0	-86.4088	
2853.5	-122.0600	
2854.0	-89.6315	
2854.5	-18.9334	
2855.0	-33.2341	
2855.5	-91.2428	
2856.0	-106.3493	
2856.5	-98.8968	
2857.0	-107.7592	
2857.5	-77.1435	
2858.0	1.6114	
2858.5	28.4001	
2859.0	-32.4285	
2859.5	-145.6260	
2860.0	-245.9327	
2860.5	-281.7853	
2861.0	-266.6789	
2861.5	-207.8645	
2862.0	-108.5649	
2862.5	47.5349	
2863.0	194.5708	
2863.5	276.1456	
2864.0	270.9087	
2864.5	187.5212	
2865.0	75.3307	
2865.5	26.3859	
2866.0	-39.2767	
2866.5	-70.6981	
2867.0	-38.0682	
2867.5	1.2085	
2868.0	14.7036	
2868.5	-5.8412	
2869.0	-81.5747	
2869.5	-115.8160	
2870.0	-80.9705	
2870.5	-28.6015	
2871.0	48.1392	
2871.5	46.5278	
2872.0	18.1277	
2872.5	-9.0639	
2873.0	-78.5534	
2873.5	-175.4360	
2874.0	-277.1526	
2874.5	-287.8279	
2875.0	-269.7002	
2875.5	-184.4999	
2876.0	-95.2712	
2876.5	-37.6654	
2877.0	19.1348	
2877.5	56.5988	
2878.0	87.8187	
2878.5	95.6741	
2879.0	145.6260	
2879.5	133.5408	
2880.0	140.5905	
2880.5	165.1637	
2881.0	115.6146	
2881.5	24.9760	
2882.0	10.2724	
2882.5	-6.8482	
2883.0	-18.5306	
2883.5	25.1774	
2884.0	32.2271	
2884.5	20.9476	
2885.0	6.0426	
2885.5	-10.6752	
2886.0	37.2625	
2886.5	40.2838	
2887.0	-5.0355	
2887.5	-115.0103	
2888.0	-171.4076	
2888.5	-154.0856	
2889.0	-158.7182	
2889.5	-154.6898	
2890.0	-118.8373	
2890.5	-86.6102	
2891.0	-92.4514	
2891.5	-109.9748	
2892.0	-95.2712	
2892.5	-85.6031	
2893.0	-61.6342	
2893.5	-20.5447	
2894.0	86.6102	
2894.5	195.1751	
2895.0	187.1183	
2895.5	143.2090	
2896.0	123.4699	
2896.5	108.3635	
2897.0	69.0867	
2897.5	39.2767	
2898.0	44.5136	
2898.5	38.6725	
2899.0	-11.8837	
2899.5	-78.1506	
2900.0	-63.2456	
2900.5	-17.3220	
2901.0	-53.9803	
2901.5	-100.9110	
2902.0	-118.4344	
2902.5	-75.1293	
2903.0	-44.9165	
2903.5	-32.0256	
2904.0	-33.4356	
2904.5	-10.4738	
2905.0	30.2129	
2905.5	58.4115	
2906.0	69.6910	
2906.5	99.0982	
2907.0	84.5960	
2907.5	33.6370	
2908.0	-66.2669	
2908.5	-33.6370	
2909.0	-17.5235	
2909.5	-0.6043	
2910.0	61.2314	
2910.5	76.7407	
2911.0	87.0130	
2911.5	63.8498	
2912.0	41.2909	
2912.5	5.2369	
2913.0	46.1250	
2913.5	70.8995	
2914.0	30.0114	
2914.5	-26.3859	
2915.0	-96.0769	
2915.5	-140.1877	
2916.0	-133.7423	
2916.5	-95.2712	
2917.0	-10.2724	
2917.5	95.0698	
2918.0	118.6358	
2918.5	108.7663	
2919.0	71.1009	
2919.5	1.4099	
2920.0	-72.7123	
2920.5	-107.3564	
2921.0	-118.8373	
2921.5	-111.9890	
2922.0	-70.2953	
2922.5	-16.5164	
2923.0	15.5093	
2923.5	23.5660	
2924.0	21.7533	
2924.5	-19.5377	
2925.0	-73.9208	
2925.5	-77.3449	
2926.0	-109.3706	
2926.5	-123.4699	
2927.0	-118.6358	
2927.5	-70.2953	
2928.0	23.5660	
2928.5	61.4328	
2929.0	92.6528	
2929.5	100.7095	
2930.0	109.1691	
2930.5	135.9579	
2931.0	124.6784	
2931.5	36.8597	
2932.0	-32.0256	
2932.5	-58.6130	
2933.0	-64.6555	
2933.5	-71.5038	
2934.0	-90.4372	
2934.5	-92.6528	
2935.0	-102.1195	
2935.5	-64.2527	
2936.0	-28.6015	
2936.5	7.8553	
2937.0	-18.7320	
2937.5	-1.4099	
2938.0	29.4072	
2938.5	86.4088	
2939.0	151.2657	
2939.5	196.3836	
2940.0	231.6319	
2940.5	229.2149	
2941.0	191.1467	
2941.5	142.4033	
2942.0	63.4470	
2942.5	2.0142	
2943.0	-72.1080	
2943.5	-149.6544	
2944.0	-159.7253	
2944.5	-69.4896	
2945.0	23.9689	
2945.5	83.3875	
2946.0	69.0867	
2946.5	16.9192	
2947.0	5.8412	
2947.5	7.8553	
2948.0	-4.8341	
2948.5	-1.0071	
2949.0	-35.2483	
2949.5	-22.9618	
2950.0	-47.7363	
2950.5	-116.6217	
2951.0	-189.7368	
2951.5	-205.4475	
2952.0	-208.4688	
2952.5	-142.8061	
2953.0	-117.4273	
2953.5	-120.6500	
2954.0	-115.8160	
2954.5	-113.6004	
2955.0	-92.6528	
2955.5	-52.9732	
2956.0	-38.4710	
2956.5	-37.2625	
2957.0	-20.3433	
2957.5	-1.8128	
2958.0	14.5022	
2958.5	5.0355	
2959.0	-33.0327	
2959.5	-60.6271	
2960.0	-88.4230	
2960.5	-96.4797	
2961.0	-117.2259	
2961.5	-126.6926	
2962.0	-100.1053	
2962.5	-65.6626	
2963.0	-23.1632	
2963.5	54.7860	
2964.0	95.8755	
2964.5	110.9819	
2965.0	151.2657	
2965.5	144.8203	
2966.0	144.2161	
2966.5	150.2586	
2967.0	126.6926	
2967.5	108.5649	
2968.0	151.6686	
2968.5	151.6686	
2969.0	151.6686	
2969.5	151.6686	
2970.0	151.6686	
2970.5	151.6686	
2971.0	151.6686	
2971.5	151.6686	
2972.0	151.6686	
2972.5	151.6686	
2973.0	151.6686	
2973.5	151.6686	
2974.0	151.6686	
2974.5	151.6686	
2975.0	151.6686	
2975.5	15.7107	
2976.0	43.5065	
2976.5	-7.0497	
2977.0	-21.3504	
2977.5	-11.8837	
2978.0	12.8908	
2978.5	1.4099	
2979.0	-0.6043	
2979.5	32.8313	
2980.0	55.5917	
2980.5	76.3378	
2981.0	72.7123	
2981.5	72.9137	
2982.0	51.5633	
2982.5	5.4383	
2983.0	-16.3149	
2983.5	-20.7462	
2984.0	-26.3859	
2984.5	-20.5447	
2985.0	-18.3291	
2985.5	-16.1135	
2986.0	-45.9235	
2986.5	-68.2811	
2987.0	-84.7974	
2987.5	-110.9819	
2988.0	-121.8585	
2988.5	-108.1620	
2989.0	-95.6741	
2989.5	-93.6599	
2990.0	-92.2499	
2990.5	-64.6555	
2991.0	-29.4072	
2991.5	-7.4525	
2992.0	-4.0284	
2992.5	-16.9192	
2993.0	-20.7462	
2993.5	-3.6255	
2994.0	18.3291	
2994.5	2.4170	
2995.0	-25.9831	
2995.5	-34.0398	
2996.0	-5.2369	
2996.5	26.3859	
2997.0	24.3717	
2997.5	4.2298	
2998.0	-15.1064	
2998.5	21.5518	
2999.0	60.2243	
2999.5	76.9421	
3000.0	41.2909	
3000.5	-23.1632	
3001.0	-88.8258	
3001.5	-115.0103	
3002.0	-123.0671	
3002.5	-93.4585	
3003.0	-72.5109	
3003.5	-83.1861	
3004.0	-98.8968	
3004.5	-107.5578	
3005.0	-76.9421	
3005.5	-34.0398	
3006.0	-13.6965	
3006.5	-31.0185	
3007.0	-16.9192	
3007.5	-15.5093	
3008.0	-3.0213	
3008.5	-30.0114	
3009.0	-57.8073	
3009.5	-71.9066	
3010.0	-47.9377	
3010.5	-13.0922	
3011.0	41.4923	
3011.5	60.8286	
3012.0	58.8144	
3012.5	50.1534	
3013.0	87.0130	
3013.5	92.0485	
3014.0	103.7308	
3014.5	82.9847	
3015.0	-35.4498	
3015.5	-115.6146	
3016.0	-109.5720	
3016.5	-109.1691	
3017.0	-65.8640	
3017.5	-43.3051	
3018.0	-28.6015	
3018.5	-9.0639	
3019.0	19.3362	
3019.5	51.9661	
3020.0	85.8045	
3020.5	111.3848	
3021.0	135.9579	
3021.5	183.0900	
3022.0	224.7837	
3022.5	256.2051	
3023.0	226.9993	
3023.5	179.6658	
3024.0	151.6686	
3024.5	92.6528	
3025.0	81.9776	
3025.5	53.5775	
3026.0	55.1888	
3026.5	19.5377	
3027.0	0.4028	
3027.5	-36.0540	
3028.0	-26.7887	
3028.5	-10.2724	
3029.0	-12.6894	
3029.5	-14.0993	
3030.0	-12.0851	
3030.5	-39.2767	
3031.0	-30.8171	
3031.5	-5.8412	
3032.0	19.9405	
3032.5	37.6654	
3033.0	36.8597	
3033.5	15.9121	
3034.0	-21.7533	
3034.5	-72.7123	
3035.0	-86.0060	
3035.5	-58.6130	
3036.0	-42.0966	
3036.5	-52.1675	
3037.0	-62.2385	
3037.5	-53.5775	
3038.0	-38.6725	
3038.5	-39.0753	
3039.0	-46.1250	
3039.5	-36.0540	
3040.0	-20.9476	
3040.5	-21.9547	
3041.0	-13.4951	
3041.5	-4.8341	
3042.0	1.8128	
3042.5	21.5518	
3043.0	3.4241	
3043.5	-7.8553	
3044.0	-9.8695	
3044.5	-1.8128	
3045.0	16.3149	
3045.5	22.7604	
3046.0	25.9831	
3046.5	-9.8695	
3047.0	-11.4809	
3047.5	-39.6796	
3048.0	-35.2483	
3048.5	-20.7462	
3049.0	-44.9165	
3049.5	-46.3264	
3050.0	-53.1746	
3050.5	-69.4896	
3051.0	-104.7379	
3051.5	-136.1593	
3052.0	-159.7253	
3052.5	-160.9339	
3053.0	-109.3706	
3053.5	-77.1435	
3054.0	-37.6654	
3054.5	-57.6059	
3055.0	-79.3591	
3055.5	-84.1932	
3056.0	-33.2341	
3056.5	42.7008	
3057.0	101.3138	
3057.5	129.9153	
3058.0	125.4841	
3058.5	107.3564	
3059.0	82.1790	
3059.5	79.1577	
3060.0	77.1435	
3060.5	53.3761	
3061.0	24.1703	
3061.5	-2.6184	
3062.0	-10.6752	
3062.5	-30.8171	
3063.0	-23.3646	
3063.5	-25.7816	
3064.0	-23.1632	
3064.5	-12.4880	
3065.0	-15.7107	
3065.5	-21.1490	
3066.0	4.4312	
3066.5	47.5349	
3067.0	56.8002	
3067.5	54.3832	
3068.0	39.2767	
3068.5	37.6654	
3069.0	9.8695	
3069.5	-16.7178	
3070.0	0.2014	
3070.5	-0.8057	
3071.0	6.6468	
3071.5	3.6255	
3072.0	-10.6752	
3072.5	15.7107	
3073.0	-2.6184	
3073.5	12.8908	
3074.0	13.6965	
3074.5	-2.4170	
3075.0	-15.9121	
3075.5	-36.0540	
3076.0	-27.5944	
3076.5	-1.0071	
3077.0	37.0611	
3077.5	83.3875	
3078.0	66.2669	
3078.5	36.0540	
3079.0	32.8313	
3079.5	52.5704	
3080.0	64.0513	
3080.5	81.9776	
3081.0	73.1151	
3081.5	67.8782	
3082.0	69.0867	
3082.5	34.8455	
3083.0	6.6468	
3083.5	-37.6654	
3084.0	-74.7265	
3084.5	-97.8897	
3085.0	-105.7450	
3085.5	-85.8045	
3086.0	-77.9492	
3086.5	-61.8357	
3087.0	-99.5010	
3087.5	-97.2854	
3088.0	-111.5862	
3088.5	-79.1577	
3089.0	-43.5065	
3089.5	-35.0469	
3090.0	-22.3575	
3090.5	-11.4809	
3091.0	-18.5306	
3091.5	-36.8597	
3092.0	-44.1108	
3092.5	-34.4427	
3093.0	-47.7363	
3093.5	-82.5818	
3094.0	-97.4868	
3094.5	-119.0387	
3095.0	-133.5408	
3095.5	-159.7253	
3096.0	-176.4431	
3096.5	-163.7537	
3097.0	-131.3252	
3097.5	-81.7761	
3098.0	-43.7079	
3098.5	-10.4738	
3099.0	41.6937	
3099.5	102.5223	
3100.0	158.5168	
3100.5	163.3509	
3101.0	162.9480	
3101.5	157.3083	
3102.0	154.0856	
3102.5	155.6969	
3103.0	154.0856	
3103.5	138.7778	
3104.0	139.1806	
3104.5	89.2287	
3105.0	71.9066	
3105.5	79.1577	
3106.0	64.8569	
3106.5	72.3094	
3107.0	83.9918	
3107.5	65.6626	
3108.0	51.3619	
3108.5	36.4569	
3109.0	30.4143	
3109.5	23.3646	
3110.0	-5.6397	
3110.5	-22.9618	
3111.0	-42.9023	
3111.5	-58.8144	
3112.0	-64.2527	
3112.5	-21.1490	
3113.0	-40.8881	
3113.5	-48.1392	
3114.0	-60.8286	
3114.5	-65.8640	
3115.0	-37.2625	
3115.5	-38.8739	
3116.0	-39.2767	
3116.5	-40.6867	
3117.0	-36.0540	
3117.5	-30.8171	
3118.0	-19.3362	
3118.5	-9.0639	
3119.0	1.0071	
3119.5	5.0355	
3120.0	14.3008	
3120.5	20.7462	
3121.0	34.0398	
3121.5	51.1604	
3122.0	52.9732	
3122.5	33.4356	
3123.0	10.6752	
3123.5	-3.4241	
3124.0	-9.6681	
3124.5	-28.4001	
3125.0	-24.1703	
3125.5	-20.3433	
3126.0	-20.1419	
3126.5	-16.3149	
3127.0	-10.6752	
3127.5	0.4028	
3128.0	4.6326	
3128.5	-11.8837	
3129.0	-25.1774	
3129.5	-41.8952	
3130.0	-50.7576	
3130.5	-56.5988	
3131.0	-61.4328	
3131.5	-99.9039	
3132.0	-102.9251	
3132.5	-110.1762	
3133.0	-102.1195	
3133.5	-102.1195	
3134.0	-69.4896	
3134.5	-35.0469	
3135.0	-2.6184	
3135.5	11.6823	
3136.0	23.9689	
3136.5	17.1206	
3137.0	3.4241	
3137.5	-4.6326	
3138.0	10.8766	
3138.5	-5.0355	
3139.0	-8.4596	
3139.5	1.6114	
3140.0	20.7462	
3140.5	61.6342	
3141.0	98.4939	
3141.5	120.0458	
3142.0	116.6217	
3142.5	88.0201	
3143.0	93.6599	
3143.5	81.7761	
3144.0	69.4896	
3144.5	45.5207	
3145.0	24.5731	
3145.5	20.5447	
3146.0	31.0185	
3146.5	14.9050	
3147.0	-4.6326	
3147.5	-13.4951	
3148.0	-21.5518	
3148.5	-25.5802	
3149.0	-18.1277	
3149.5	-26.1845	
3150.0	-20.5447	
3150.5	-20.5447	
3151.0	7.0497	
3151.5	13.4951	
3152.0	32.4285	
3152.5	28.8029	
3153.0	21.3504	
3153.5	40.8881	
3154.0	38.4710	
3154.5	20.9476	
3155.0	15.7107	
3155.5	7.2511	
3156.0	27.1916	
3156.5	20.3433	
3157.0	8.0568	
3157.5	-15.1064	
3158.0	-31.2200	
3158.5	-40.0824	
3159.0	-53.7789	
3159.5	-43.3051	
3160.0	-62.0371	
3160.5	-72.9137	
3161.0	-72.7123	
3161.5	-78.7549	
3162.0	-37.6654	
3162.5	-20.5447	
3163.0	-21.5518	
3163.5	-37.2625	
3164.0	-49.7505	
3164.5	-61.6342	
3165.0	-58.6130	
3165.5	-60.0229	
3166.0	-30.2129	
3166.5	-10.8766	
3167.0	-4.6326	
3167.5	3.6255	
3168.0	5.4383	
3168.5	-12.6894	
3169.0	-40.4852	
3169.5	-64.2527	
3170.0	-63.4470	
3170.5	-68.8853	
3171.0	-34.0398	
3171.5	-30.4143	
3172.0	-48.1392	
3172.5	-50.5562	
3173.0	-43.3051	
3173.5	-31.4214	
3174.0	-29.6086	
3174.5	-35.2483	
3175.0	-40.8881	
3175.5	-54.3832	
3176.0	-56.5988	
3176.5	-74.9279	
3177.0	-64.8569	
3177.5	-53.7789	
3178.0	-47.7363	
3178.5	-13.8979	
3179.0	17.5235	
3179.5	51.7647	
3180.0	74.7265	
3180.5	86.2074	
3181.0	126.6926	
3181.5	155.0927	
3182.0	162.5452	
3182.5	161.9409	
3183.0	174.6303	
3183.5	164.9622	
3184.0	142.2019	
3184.5	125.0813	
3185.0	120.4486	
3185.5	97.0840	
3186.0	88.0201	
3186.5	46.1250	
3187.0	21.5518	
3187.5	0.2014	
3188.0	12.6894	
3188.5	20.1419	
3189.0	4.0284	
3189.5	-1.6114	
3190.0	-17.3220	
3190.5	-24.7745	
3191.0	-36.0540	
3191.5	-15.1064	
3192.0	-18.3291	
3192.5	-24.3717	
3193.0	-25.1774	
3193.5	-37.2625	
3194.0	-30.8171	
3194.5	-35.2483	
3195.0	-36.8597	
3195.5	-34.8455	
3196.0	-43.9094	
3196.5	-41.0895	
3197.0	-39.8810	
3197.5	-28.8029	
3198.0	-8.2582	
3198.5	5.4383	
3199.0	16.1135	
3199.5	34.4427	
3200.0	51.5633	
3200.5	29.8100	
3201.0	16.3149	
3201.5	4.2298	
3202.0	-18.5306	
3202.5	-23.7675	
3203.0	-29.6086	
3203.5	-51.3619	
3204.0	-46.9306	
3204.5	-30.8171	
3205.0	-24.3717	
3205.5	-31.2200	
3206.0	-39.6796	
3206.5	-24.9760	
3207.0	-11.8837	
3207.5	20.3433	
3208.0	46.5278	
3208.5	53.3761	
3209.0	44.5136	
3209.5	33.4356	
3210.0	36.4569	
3210.5	14.3008	
3211.0	19.5377	
3211.5	14.9050	
3212.0	30.4143	
3212.5	7.8553	
3213.0	-9.4667	
3213.5	-15.3078	
3214.0	-40.4852	
3214.5	-41.6937	
3215.0	-53.7789	
3215.5	-39.4781	
3216.0	-18.3291	
3216.5	-11.0780	
3217.0	-11.6823	
3217.5	-8.8624	
3218.0	3.6255	
3218.5	-7.0497	
3219.0	0.6043	
3219.5	-2.4170	
3220.0	-5.8412	
3220.5	-15.1064	
3221.0	4.4312	
3221.5	20.7462	
3222.0	14.7036	
3222.5	-4.0284	
3223.0	-4.0284	
3223.5	25.9831	
3224.0	20.7462	
3224.5	8.0568	
3225.0	2.0142	
3225.5	-14.9050	
3226.0	-8.4596	
3226.5	-20.7462	
3227.0	-22.1561	
3227.5	-1.8128	
3228.0	6.6468	
3228.5	0.4028	
3229.0	25.9831	
3229.5	4.4312	
3230.0	-6.0426	
3230.5	-24.3717	
3231.0	-13.4951	
3231.5	-30.4143	
3232.0	-26.1845	
3232.5	-27.9973	
3233.0	-21.9547	
3233.5	-20.3433	
3234.0	-9.4667	
3234.5	-8.0568	
3235.0	-14.7036	
3235.5	-20.3433	
3236.0	-25.7816	
3236.5	-27.5944	
3237.0	-31.6228	
3237.5	-18.7320	
3238.0	-46.1250	
3238.5	-48.7434	
3239.0	-36.8597	
3239.5	-40.0824	
3240.0	-24.3717	
3240.5	-23.7675	
3241.0	-20.9476	
3241.5	-12.8908	
3242.0	-19.5377	
3242.5	-14.7036	
3243.0	-8.2582	
3243.5	25.3788	
3244.0	34.8455	
3244.5	30.6157	
3245.0	27.7958	
3245.5	25.9831	
3246.0	8.6610	
3246.5	3.8270	
3247.0	5.8412	
3247.5	-8.2582	
3248.0	4.0284	
3248.5	-9.4667	
3249.0	-5.8412	
3249.5	0.6043	
3250.0	-8.4596	
3250.5	-5.0355	
3251.0	-13.8979	
3251.5	-8.8624	
3252.0	-14.0993	
3252.5	-3.0213	
3253.0	-8.2582	
3253.5	-4.2298	
3254.0	-5.4383	
3254.5	-21.1490	
3255.0	-10.2724	
3255.5	2.6184	
3256.0	20.5447	
3256.5	11.6823	
3257.0	9.8695	
3257.5	-5.8412	
3258.0	11.8837	
3258.5	8.6610	
3259.0	17.9263	
3259.5	0.6043	
3260.0	4.6326	
3260.5	-7.0497	
3261.0	-4.2298	
3261.5	2.8199	
3262.0	17.3220	
3262.5	17.7249	
3263.0	19.7391	
3263.5	-4.6326	
3264.0	-5.2369	
3264.5	6.4454	
3265.0	-3.0213	
3265.5	3.0213	
3266.0	4.6326	
3266.5	0.4028	
3267.0	-2.6184	
3267.5	-10.2724	
3268.0	-5.0355	
3268.5	-4.4312	
3269.0	1.4099	
3269.5	-13.4951	
3270.0	-14.3008	
3270.5	-12.0851	
3271.0	-11.2795	
3271.5	-16.7178	
3272.0	-12.2866	
3272.5	-7.0497	
3273.0	-2.2156	
3273.5	-3.8270	
3274.0	0.2014	
3274.5	-13.2937	
3275.0	-4.6326	
3275.5	-6.2440	
3276.0	-16.7178	
3276.5	-17.1206	
3277.0	-15.1064	
3277.5	-33.6370	
3278.0	-17.9263	
3278.5	-30.0114	
3279.0	-14.7036	
3279.5	-0.8057	
3280.0	2.8199	
3280.5	-0.2014	
3281.0	17.7249	
3281.5	-4.6326	
3282.0	1.6114	
3282.5	12.4880	
3283.0	13.2937	
3283.5	13.2937	
3284.0	13.2937	
3284.5	13.2937	
3285.0	13.2937	
3285.5	13.2937	
3286.0	13.2937	
3286.5	13.2937	
3287.0	13.2937	
3287.5	13.2937	
3288.0	13.2937	
3288.5	13.2937	
3289.0	13.2937	
3289.5	13.2937	
3290.0	13.2937	
3290.5	-4.0284	
3291.0	2.0142	
3291.5	9.8695	
3292.0	5.4383	
3292.5	2.2156	
3293.0	4.4312	
3293.5	5.2369	
3294.0	10.2724	
3294.5	2.6184	
3295.0	-5.4383	
3295.5	-10.0710	
3296.0	-14.7036	
3296.5	-13.2937	
3297.0	-11.4809	
3297.5	-8.8624	
3298.0	-3.2227	
3298.5	0.0000	
3299.0	-4.2298	
3299.5	-11.6823	
3300.0	-26.5873	
3300.5	-1.8128	
3301.0	-9.4667	
3301.5	-27.9973	
3302.0	-34.0398	
3302.5	-42.2980	
3303.0	-34.0398	
3303.5	-17.1206	
3304.0	-12.2866	
3304.5	-7.8553	
3305.0	9.2653	
3305.5	13.8979	
3306.0	18.1277	
3306.5	19.3362	
3307.0	16.3149	
3307.5	14.7036	
3308.0	13.2937	
3308.5	9.6681	
3309.0	0.8057	
3309.5	16.5164	
3310.0	8.2582	
3310.5	-0.4028	
3311.0	-0.2014	
3311.5	0.4028	
3312.0	4.2298	
3312.5	-1.4099	
3313.0	-3.8270	
3313.5	0.2014	
3314.0	-0.2014	
3314.5	5.8412	
3315.0	6.4454	
3315.5	-1.0071	
3316.0	-7.6539	
3316.5	-1.4099	
3317.0	-5.6397	
3317.5	-2.4170	
3318.0	-11.4809	
3318.5	-9.4667	
3319.0	-4.2298	
3319.5	-8.6610	
3320.0	-1.6114	
3320.5	-3.0213	
3321.0	-7.8553	
3321.5	-16.9192	
3322.0	-8.2582	
3322.5	-4.6326	
3323.0	13.8979	
3323.5	6.0426	
3324.0	-6.6468	
3324.5	-19.1348	
3325.0	-14.7036	
3325.5	-11.0780	
3326.0	-11.4809	
3326.5	-4.6326	
3327.0	-7.6539	
3327.5	-11.0780	
3328.0	-4.6326	
3328.5	0.2014	
3329.0	4.6326	
3329.5	-11.0780	
3330.0	-9.8695	
3330.5	-34.4427	
3331.0	-23.1632	
3331.5	-24.3717	
3332.0	-16.3149	
3332.5	-16.9192	
3333.0	-9.8695	
3333.5	-5.2369	
3334.0	-4.6326	
3334.5	-7.2511	
3335.0	-12.4880	
3335.5	-15.3078	
3336.0	-13.8979	
3336.5	-14.9050	
3337.0	-23.5660	
3337.5	-8.6610	
3338.0	-14.7036	
3338.5	-8.8624	
3339.0	4.2298	
3339.5	1.6114	
3340.0	-3.4241	
3340.5	-0.8057	
3341.0	9.6681	
3341.5	-11.6823	
3342.0	-8.0568	
3342.5	-22.7604	
3343.0	-14.9050	
3343.5	-13.6965	
3344.0	-7.8553	
3344.5	-5.8412	
3345.0	-11.2795	
3345.5	-6.6468	
3346.0	-20.7462	
3346.5	-17.1206	
3347.0	-8.8624	
3347.5	-12.2866	
3348.0	-31.4214	
3348.5	-30.2129	
3349.0	-34.2412	
3349.5	-37.0611	
3350.0	-28.8029	
3350.5	-25.3788	
3351.0	-29.2058	
3351.5	-30.2129	
3352.0	-17.5235	
3352.5	-12.6894	
3353.0	2.0142	
3353.5	4.6326	
3354.0	-6.8482	
3354.5	12.4880	
3355.0	14.5022	
3355.5	26.5873	
3356.0	25.1774	
3356.5	19.9405	
3357.0	29.2058	
3357.5	18.5306	
3358.0	10.8766	
3358.5	8.6610	
3359.0	4.6326	
3359.5	-11.0780	
3360.0	-6.0426	
3360.5	-14.7036	
3361.0	-15.5093	
3361.5	-11.0780	
3362.0	-24.1703	
3362.5	-29.4072	
3363.0	-12.2866	
3363.5	-11.0780	
3364.0	-21.5518	
3364.5	-18.3291	
3365.0	-6.4454	
3365.5	-2.2156	
3366.0	-13.0922	
3366.5	-10.0710	
3367.0	-24.3717	
3367.5	-16.5164	
3368.0	-13.0922	
3368.5	-13.2937	
3369.0	-5.0355	
3369.5	10.2724	
3370.0	-1.6114	
3370.5	-8.6610	
3371.0	-1.0071	
3371.5	5.6397	
3372.0	-7.8553	
3372.5	0.4028	
3373.0	-8.6610	
3373.5	-14.0993	
3374.0	-18.3291	
3374.5	-19.1348	
3375.0	-10.8766	
3375.5	-19.7391	
3376.0	-24.9760	
3376.5	-31.0185	
3377.0	-28.1987	
3377.5	-10.4738	
3378.0	14.5022	
3378.5	17.5235	
3379.0	5.4383	
3379.5	7.6539	
3380.0	13.0922	
3380.5	20.3433	
3381.0	21.5518	
3381.5	24.3717	
3382.0	11.0780	
3382.5	5.8412	
3383.0	12.8908	
3383.5	4.6326	
3384.0	3.8270	
3384.5	3.4241	
3385.0	8.6610	
3385.5	23.1632	
3386.0	6.6468	
3386.5	0.4028	
3387.0	4.6326	
3387.5	0.6043	
3388.0	-4.8341	
3388.5	-10.0710	
3389.0	-10.4738	
3389.5	2.6184	
3390.0	-5.6397	
3390.5	-9.4667	
3391.0	-0.2014	
3391.5	-7.0497	
3392.0	-4.4312	
3392.5	-14.5022	
3393.0	-10.4738	
3393.5	-13.4951	
3394.0	-18.5306	
3394.5	-19.1348	
3395.0	-27.1916	
3395.5	-27.1916	
3396.0	-27.1916	
3396.5	-27.1916	
3397.0	-27.1916	
3397.5	-27.1916	
3398.0	-27.1916	
3398.5	-27.1916	
3399.0	-27.1916	
3399.5	-27.1916	
3400.0	-27.1916	
3400.5	-27.1916	
3401.0	-27.1916	
3401.5	-27.1916	
3402.0	-27.1916	
3402.5	19.7391	
3403.0	21.3504	
3403.5	17.9263	
3404.0	21.5518	
3404.5	8.4596	
3405.0	6.6468	
3405.5	8.2582	
3406.0	1.0071	
3406.5	17.7249	
3407.0	25.5802	
3407.5	36.2554	
3408.0	23.5660	
3408.5	31.4214	
3409.0	50.3548	
3409.5	57.6059	
3410.0	35.6512	
3410.5	19.1348	
3411.0	13.8979	
3411.5	-2.6184	
3412.0	-0.4028	
3412.5	-2.8199	
3413.0	1.0071	
3413.5	-1.0071	
3414.0	-3.8270	
3414.5	-9.0639	
3415.0	-6.4454	
3415.5	1.4099	
3416.0	-4.8341	
3416.5	-11.4809	
3417.0	-31.2200	
3417.5	-12.0851	
3418.0	-1.8128	
3418.5	-8.0568	
3419.0	2.2156	
3419.5	1.4099	
3420.0	4.0284	
3420.5	-13.8979	
3421.0	-5.8412	
3421.5	-5.4383	
3422.0	-4.2298	
3422.5	-3.0213	
3423.0	-8.6610	
3423.5	-16.1135	
3424.0	-3.6255	
3424.5	-15.1064	
3425.0	-5.0355	
3425.5	-4.4312	
3426.0	-10.2724	
3426.5	-12.0851	
3427.0	-23.1632	
3427.5	-33.6370	
3428.0	-33.4356	
3428.5	-33.0327	
3429.0	-27.1916	
3429.5	-38.2696	
3430.0	-31.4214	
3430.5	-21.5518	
3431.0	-17.7249	
3431.5	-24.1703	
3432.0	-35.0469	
3432.5	-27.5944	
3433.0	-27.9973	
3433.5	-25.3788	
3434.0	-20.9476	
3434.5	-12.6894	
3435.0	-11.4809	
3435.5	7.4525	
3436.0	14.9050	
3436.5	11.8837	
3437.0	14.3008	
3437.5	17.1206	
3438.0	13.0922	
3438.5	1.4099	
3439.0	-5.0355	
3439.5	-5.0355	
3440.0	5.0355	
3440.5	13.2937	
3441.0	14.3008	
3441.5	16.3149	
3442.0	12.6894	
3442.5	4.2298	
3443.0	7.2511	
3443.5	14.7036	
3444.0	17.5235	
3444.5	1.8128	
3445.0	-8.8624	
3445.5	-6.0426	
3446.0	-12.2866	
3446.5	1.4099	
3447.0	-5.2369	
3447.5	-14.3008	
3448.0	0.4028	
3448.5	4.8341	
3449.0	7.4525	
3449.5	-5.4383	
3450.0	-5.0355	
3450.5	-17.1206	
3451.0	-9.2653	
3451.5	-16.7178	
3452.0	-12.6894	
3452.5	-13.6965	
3453.0	-11.0780	
3453.5	0.6043	
3454.0	10.2724	
3454.5	11.6823	
3455.0	16.7178	
3455.5	16.7178	
3456.0	4.2298	
3456.5	19.5377	
3457.0	-7.0497	
3457.5	2.2156	
3458.0	-1.8128	
3458.5	-14.5022	
3459.0	-7.6539	
3459.5	-17.7249	
3460.0	-18.3291	
3460.5	-14.9050	
3461.0	1.6114	
3461.5	-11.8837	
3462.0	-1.0071	
3462.5	0.4028	
3463.0	-7.2511	
3463.5	-3.8270	
3464.0	5.0355	
3464.5	-7.8553	
3465.0	-12.6894	
3465.5	-9.4667	
3466.0	-3.8270	
3466.5	-11.8837	
3467.0	-6.8482	
3467.5	-1.8128	
3468.0	-0.6043	
3468.5	3.4241	
3469.0	20.1419	
3469.5	13.4951	
3470.0	10.2724	
3470.5	9.0639	
3471.0	-1.0071	
3471.5	18.5306	
3472.0	3.4241	
3472.5	-0.6043	
3473.0	-0.6043	
3473.5	6.6468	
3474.0	2.8199	
3474.5	-3.2227	
3475.0	-1.8128	
3475.5	-0.2014	
3476.0	-10.8766	
3476.5	-15.7107	
3477.0	-4.4312	
3477.5	4.6326	
3478.0	-0.2014	
3478.5	-13.4951	
3479.0	-9.8695	
3479.5	-13.0922	
3480.0	-15.1064	
3480.5	-9.4667	
3481.0	-14.9050	
3481.5	-20.1419	
3482.0	-18.3291	
3482.5	-19.1348	
3483.0	-15.1064	
3483.5	-3.2227	
3484.0	-15.1064	
3484.5	-9.4667	
3485.0	11.8837	
3485.5	13.6965	
3486.0	9.2653	
3486.5	9.0639	
3487.0	21.5518	
3487.5	21.1490	
3488.0	14.0993	
3488.5	11.8837	
3489.0	7.8553	
3489.5	4.2298	
3490.0	-4.0284	
3490.5	5.4383	
3491.0	10.6752	
3491.5	5.4383	
3492.0	8.0568	
3492.5	2.8199	
3493.0	2.6184	
3493.5	10.6752	
3494.0	1.2085	
3494.5	9.2653	
3495.0	22.9618	
3495.5	0.2014	
3496.0	2.6184	
3496.5	-12.0851	
3497.0	-8.8624	
3497.5	-21.5518	
3498.0	-13.4951	
3498.5	-8.6610	
3499.0	1.4099	
3499.5	3.8270	
3500.0	-5.6397	
3500.5	2.0142	
3501.0	-8.6610	
3501.5	0.6043	
3502.0	0.2014	
3502.5	-1.4099	
3503.0	-1.2085	
3503.5	-3.8270	
3504.0	-1.0071	
3504.5	-6.2440	
3505.0	2.2156	
3505.5	10.8766	
3506.0	-0.8057	
3506.5	-6.0426	
3507.0	-5.0355	
3507.5	-7.4525	
3508.0	-5.4383	
3508.5	-6.0426	
3509.0	-10.8766	
3509.5	-7.4525	
3510.0	2.4170	
3510.5	-0.4028	
3511.0	7.4525	
3511.5	6.0426	
3512.0	35.0469	
3512.5	6.8482	
3513.0	2.2156	
3513.5	10.6752	
3514.0	19.7391	
3514.5	14.3008	
3515.0	24.3717	
3515.5	0.0000	
3516.0	2.2156	
3516.5	-12.8908	
3517.0	1.4099	
3517.5	-0.2014	
3518.0	-15.3078	
3518.5	-26.7887	
3519.0	-21.9547	
3519.5	-19.9405	
3520.0	-10.6752	
3520.5	4.6326	
3521.0	8.2582	
3521.5	15.5093	
3522.0	16.7178	
3522.5	29.4072	
3523.0	20.3433	
3523.5	14.9050	
3524.0	9.2653	
3524.5	0.4028	
3525.0	4.0284	
3525.5	10.2724	
3526.0	17.9263	
3526.5	21.5518	
3527.0	2.2156	
3527.5	6.6468	
3528.0	1.8128	
3528.5	8.4596	
3529.0	0.8057	
3529.5	-0.6043	
3530.0	4.4312	
3530.5	5.4383	
3531.0	1.8128	
3531.5	-5.4383	
3532.0	-9.6681	
3532.5	-8.2582	
3533.0	5.4383	
3533.5	-13.0922	
3534.0	-14.9050	
3534.5	-16.7178	
3535.0	-10.2724	
3535.5	-2.6184	
3536.0	-7.4525	
3536.5	-9.4667	
3537.0	-0.2014	
3537.5	-3.0213	
3538.0	-10.0710	
3538.5	-16.5164	
3539.0	-15.5093	
3539.5	-0.2014	
3540.0	-1.2085	
3540.5	-0.6043	
3541.0	7.8553	
3541.5	21.5518	
3542.0	25.5802	
3542.5	15.1064	
3543.0	9.6681	
3543.5	8.2582	
3544.0	-3.4241	
3544.5	14.3008	
3545.0	3.2227	
3545.5	-3.2227	
3546.0	-21.1490	
3546.5	-0.2014	
3547.0	-4.6326	
3547.5	-4.6326	
3548.0	-4.4312	
3548.5	-5.4383	
3549.0	-3.8270	
3549.5	-0.6043	
3550.0	1.4099	
3550.5	1.0071	
3551.0	-4.2298	
3551.5	10.2724	
3552.0	13.0922	
3552.5	-3.8270	
3553.0	-8.4596	
3553.5	-19.9405	
3554.0	-15.1064	
3554.5	-23.9689	
3555.0	-25.1774	
3555.5	-24.1703	
3556.0	-25.1774	
3556.5	-19.9405	
3557.0	-5.0355	
3557.5	-9.2653	
3558.0	-22.7604	
3558.5	-34.0398	
3559.0	-11.4809	
3559.5	1.4099	
3560.0	-16.7178	
3560.5	-7.2511	
3561.0	-11.8837	
3561.5	-6.8482	
3562.0	-2.4170	
3562.5	11.8837	
3563.0	0.8057	
3563.5	-4.4312	
3564.0	19.5377	
3564.5	27.5944	
3565.0	32.4285	
3565.5	29.6086	
3566.0	25.1774	
3566.5	27.7958	
3567.0	20.1419	
3567.5	23.9689	
3568.0	15.3078	
3568.5	11.6823	
3569.0	7.4525	
3569.5	-2.8199	
3570.0	-11.6823	
3570.5	-5.4383	
3571.0	1.4099	
3571.5	-0.6043	
3572.0	0.0000	
3572.5	-5.0355	
3573.0	-9.0639	
3573.5	-18.3291	
3574.0	-23.9689	
3574.5	-24.5731	
3575.0	-34.4427	
3575.5	-32.6299	
3576.0	-45.5207	
3576.5	-43.7079	
3577.0	-32.0256	
3577.5	-37.2625	
3578.0	-16.9192	
3578.5	2.2156	
3579.0	8.4596	
3579.5	17.9263	
3580.0	7.8553	
3580.5	17.5235	
3581.0	0.6043	
3581.5	5.2369	
3582.0	13.0922	
3582.5	17.3220	
3583.0	24.9760	
3583.5	46.9306	
3584.0	55.3902	
3584.5	39.6796	
3585.0	22.1561	
3585.5	15.5093	
3586.0	-1.0071	
3586.5	-6.8482	
3587.0	-8.6610	
3587.5	0.8057	
3588.0	-5.4383	
3588.5	19.9405	
3589.0	36.6583	
3589.5	32.6299	
3590.0	24.7745	
3590.5	27.1916	
3591.0	10.6752	
3591.5	22.1561	
3592.0	15.5093	
3592.5	13.2937	
3593.0	12.8908	
3593.5	0.0000	
3594.0	8.2582	
3594.5	-0.6043	
3595.0	10.6752	
3595.5	17.3220	
3596.0	-2.2156	
3596.5	5.0355	
3597.0	-2.6184	
3597.5	-13.0922	
3598.0	-4.0284	
3598.5	1.4099	
3599.0	-4.6326	
3599.5	5.4383	
3600.0	-3.8270	
3600.5	4.0284	
3601.0	1.2085	
3601.5	-7.8553	
3602.0	-19.5377	
3602.5	-18.5306	
3603.0	-8.8624	
3603.5	-12.2866	
3604.0	-11.0780	
3604.5	-23.5660	
3605.0	-23.1632	
3605.5	-32.6299	
3606.0	-43.5065	
3606.5	-35.4498	
3607.0	-33.6370	
3607.5	-26.9902	
3608.0	-23.5660	
3608.5	-28.1987	
3609.0	-15.5093	
3609.5	-21.5518	
3610.0	-15.3078	
3610.5	-4.8341	
3611.0	-0.6043	
3611.5	11.0780	
3612.0	7.0497	
3612.5	29.0043	
3613.0	43.3051	
3613.5	47.3335	
3614.0	48.7434	
3614.5	39.8810	
3615.0	17.1206	
3615.5	3.6255	
3616.0	-8.4596	
3616.5	-8.2582	
3617.0	-12.2866	
3617.5	0.6043	
3618.0	14.7036	
3618.5	-12.0851	
3619.0	-11.8837	
3619.5	-16.5164	
3620.0	-14.7036	
3620.5	1.8128	
3621.0	2.4170	
3621.5	16.9192	
3622.0	5.0355	
3622.5	-12.8908	
3623.0	-5.8412	
3623.5	-6.2440	
3624.0	-13.8979	
3624.5	-22.1561	
3625.0	5.4383	
3625.5	-6.2440	
3626.0	4.0284	
3626.5	-0.6043	
3627.0	-9.6681	
3627.5	-13.6965	
3628.0	-8.2582	
3628.5	-14.7036	
3629.0	4.4312	
3629.5	3.6255	
3630.0	17.5235	
3630.5	10.6752	
3631.0	12.8908	
3631.5	14.9050	
3632.0	16.5164	
3632.5	10.4738	
3633.0	11.0780	
3633.5	7.4525	
3634.0	-11.0780	
3634.5	-14.7036	
3635.0	-28.4001	
3635.5	-21.5518	
3636.0	-38.6725	
3636.5	-35.2483	
3637.0	-32.0256	
3637.5	-37.0611	
3638.0	-35.2483	
3638.5	-4.0284	
3639.0	-12.6894	
3639.5	-21.9547	
3640.0	-11.0780	
3640.5	-13.2937	
3641.0	-0.2014	
3641.5	-6.6468	
3642.0	5.6397	
3642.5	-1.4099	
3643.0	-8.2582	
3643.5	12.6894	
3644.0	19.5377	
3644.5	8.0568	
3645.0	-10.4738	
3645.5	-3.0213	
3646.0	8.8624	
3646.5	14.0993	
3647.0	20.1419	
3647.5	14.7036	
3648.0	13.4951	
3648.5	17.3220	
3649.0	19.3362	
3649.5	0.2014	
3650.0	-11.0780	
3650.5	-16.3149	
3651.0	1.6114	
3651.5	-13.0922	
3652.0	-21.7533	
3652.5	-17.3220	
3653.0	-8.2582	
3653.5	-11.2795	
3654.0	0.2014	
3654.5	0.4028	
3655.0	-21.9547	
3655.5	-23.1632	
3656.0	-23.1632	
3656.5	-12.6894	
3657.0	-22.9618	
3657.5	-6.2440	
3658.0	-3.2227	
3658.5	2.4170	
3659.0	6.6468	
3659.5	16.3149	
3660.0	1.0071	
3660.5	14.3008	
3661.0	11.0780	
3661.5	-4.6326	
3662.0	-19.1348	
3662.5	-11.4809	
3663.0	-5.4383	
3663.5	-7.4525	
3664.0	-15.9121	
3664.5	-33.0327	
3665.0	-26.3859	
3665.5	-17.9263	
3666.0	-26.7887	
3666.5	-21.9547	
3667.0	-14.0993	
3667.5	-12.8908	
3668.0	-14.3008	
3668.5	-13.2937	
3669.0	-10.8766	
3669.5	-17.9263	
3670.0	-22.7604	
3670.5	-20.3433	
3671.0	4.6326	
3671.5	16.1135	
3672.0	18.7320	
3672.5	21.1490	
3673.0	8.2582	
3673.5	6.0426	
3674.0	4.6326	
3674.5	21.9547	
3675.0	7.6539	
3675.5	7.8553	
3676.0	10.6752	
3676.5	14.3008	
3677.0	8.4596	
3677.5	2.2156	
3678.0	-12.2866	
3678.5	-12.2866	
3679.0	-9.0639	
3679.5	-11.0780	
3680.0	-23.1632	
3680.5	-23.5660	
3681.0	-25.7816	
3681.5	-15.9121	
3682.0	-16.1135	
3682.5	-26.5873	
3683.0	-21.9547	
3683.5	-16.7178	
3684.0	-23.5660	
3684.5	-27.9973	
3685.0	-19.9405	
3685.5	-12.6894	
3686.0	4.2298	
3686.5	18.3291	
3687.0	24.7745	
3687.5	16.1135	
3688.0	15.3078	
3688.5	13.0922	
3689.0	20.7462	
3689.5	9.0639	
3690.0	7.2511	
3690.5	15.7107	
3691.0	24.3717	
3691.5	23.7675	
3692.0	14.5022	
3692.5	3.8270	
3693.0	-9.0639	
3693.5	-33.0327	
3694.0	-31.8242	
3694.5	-3.8270	
3695.0	15.7107	
3695.5	7.4525	
3696.0	26.1845	
3696.5	21.3504	
3697.0	17.1206	
3697.5	8.6610	
3698.0	8.2582	
3698.5	-5.2369	
3699.0	-17.3220	
3699.5	-29.6086	
3700.0	-32.0256	
3700.5	-35.6512	
3701.0	-18.9334	
3701.5	1.8128	
3702.0	40.0824	
3702.5	58.0087	
3703.0	61.6342	
3703.5	61.6342	
3704.0	61.6342	
3704.5	61.6342	
3705.0	61.6342	
3705.5	61.6342	
3706.0	61.6342	
3706.5	61.6342	
3707.0	61.6342	
3707.5	61.6342	
3708.0	61.6342	
3708.5	61.6342	
3709.0	61.6342	
3709.5	61.6342	
3710.0	61.6342	
3710.5	36.8597	
3711.0	30.4143	
3711.5	37.4640	
3712.0	3.0213	
3712.5	-21.1490	
3713.0	-48.9448	
3713.5	-50.5562	
3714.0	-41.8952	
3714.5	-38.0682	
3715.0	-23.1632	
3715.5	-21.3504	
3716.0	-4.0284	
3716.5	34.2412	
3717.0	73.1151	
3717.5	110.1762	
3718.0	117.4273	
3718.5	116.8231	
3719.0	93.0556	
3719.5	50.3548	
3720.0	-27.9973	
3720.5	-63.6484	
3721.0	-104.1337	
3721.5	-119.8444	
3722.0	-81.7761	
3722.5	-24.5731	
3723.0	11.4809	
3723.5	7.4525	
3724.0	-7.0497	
3724.5	-6.6468	
3725.0	-17.9263	
3725.5	-18.3291	
3726.0	-42.9023	
3726.5	-44.7150	
3727.0	-40.6867	
3727.5	-37.6654	
3728.0	-36.4569	
3728.5	16.1135	
3729.0	114.2046	
3729.5	154.8913	
3730.0	128.1025	
3730.5	99.0982	
3731.0	64.8569	
3731.5	48.5420	
3732.0	53.1746	
3732.5	51.5633	
3733.0	52.1675	
3733.5	65.4612	
3734.0	33.4356	
3734.5	-4.2298	
3735.0	-2.0142	
3735.5	18.9334	
3736.0	27.9973	
3736.5	73.1151	
3737.0	92.0485	
3737.5	66.4683	
3738.0	-7.2511	
3738.5	-18.5306	
3739.0	-0.4028	
3739.5	4.8341	
3740.0	0.4028	
3740.5	1.4099	
3741.0	4.6326	
3741.5	-2.8199	
3742.0	14.3008	
3742.5	36.0540	
3743.0	59.8215	
3743.5	14.0993	
3744.0	17.5235	
3744.5	90.4372	
3745.0	147.0359	
3745.5	153.6828	
3746.0	127.2969	
3746.5	169.3934	
3747.0	286.0151	
3747.5	378.8693	
3748.0	370.8125	
3748.5	299.1073	
3749.0	203.8361	
3749.5	172.2133	
3750.0	176.6445	
3750.5	218.3383	
3751.0	243.1128	
3751.5	225.1865	
3752.0	101.5152	
3752.5	-2.8199	
3753.0	-52.1675	
3753.5	-64.2527	
3754.0	-27.5944	
3754.5	25.9831	
3755.0	84.7974	
3755.5	41.6937	
3756.0	-121.0529	
3756.5	-313.2067	
3757.0	-448.9631	
3757.5	-484.6143	
3758.0	-488.0385	
3758.5	-441.7120	
3759.0	-360.3387	
3759.5	-337.1755	
3760.0	-326.2989	
3760.5	-251.9753	
3761.0	-115.8160	
3761.5	51.3619	
3762.0	279.3683	
3762.5	436.4752	
3763.0	451.7830	
3763.5	337.7798	
3764.0	112.7947	
3764.5	-112.9961	
3765.0	-264.8661	
3765.5	-279.1668	
3766.0	-227.8050	
3766.5	-159.3225	
3767.0	-130.3181	
3767.5	-83.5889	
3768.0	-19.7391	
3768.5	-30.8171	
3769.0	-22.3575	
3769.5	47.9377	
